frequency;power spectrum
0.0;20104272.296
0.06283185307179587;16202529.384786721
0.12566370614359174;10450363.404134179
0.18849555921538758;5882658.650100167
0.25132741228718347;2918617.950624724
0.3141592653589793;1351461.383595213
0.37699111843077515;644444.3996057302
0.43982297150257105;320769.86441842123
0.5026548245743669;163285.02654097925
0.5654866776461628;85565.95304936719
0.6283185307179586;48589.88914838252
0.6911503837897545;27410.67966200962
0.7539822368615503;19493.40902142725
0.8168140899333463;17724.69130989615
0.8796459430051421;12938.31179064841
0.9424777960769378;10948.214746938951
1.0053096491487339;8515.637061172441
1.0681415022205298;7259.671649057371
1.1309733552923256;7974.147502651136
1.1938052083641213;8251.939618810822
1.2566370614359172;7132.622081943265
1.3194689145077132;6513.866512023241
1.382300767579509;4810.984756481734
1.4451326206513047;3747.5977054646314
1.5079644737231006;3747.572503248874
1.5707963267948966;3745.0512860171093
1.6336281798666925;3982.841874199762
1.6964600329384882;4473.973184484349
1.7592918860102842;3707.5978740085043
1.8221237390820801;2938.388754892356
1.8849555921538756;2150.2271141258166
1.9477874452256716;2003.5501512879794
2.0106192982974678;2017.0484806716295
2.0734511513692637;1790.5814416825338
2.1362830044410597;1950.2886127615343
2.199114857512855;1902.9314576823576
2.261946710584651;1644.870630371037
2.324778563656447;1622.221918792964
2.3876104167282426;1571.1799244875028
2.4504422698000385;1339.4591826942212
2.5132741228718345;1111.6803307368132
2.57610597594363;985.3230855648173
2.6389378290154264;1320.9264574948945
2.701769682087222;1341.628792310734
2.764601535159018;1138.0697185369947
2.827433388230814;1104.458117536696
2.8902652413026093;963.7966631959157
2.9530970943744057;878.3436966483422
3.015928947446201;1013.1884449798131
3.078760800517997;1175.9700562609987
3.141592653589793;1492.5380046933185
3.204424506661589;1487.5755619301299
3.267256359733385;1470.7392776019046
3.330088212805181;1497.586968523457
3.3929200658769765;1359.7716039836819
3.4557519189487724;1161.4798466371017
3.5185837720205684;931.4054855153214
3.581415625092364;864.3261941297568
3.6442474781641603;832.4805510087824
3.707079331235956;868.1928224875825
3.7699111843077513;768.2171965559905
3.8327430373795477;777.4356891944357
3.895574890451343;830.4786628849795
3.9584067435231396;813.1024436703287
4.0212385965949355;667.3169221686449
4.084070449666731;500.0379121865928
4.1469023027385274;449.1451351197007
4.209734155810323;475.20694749670207
4.272566008882119;525.8927375109888
4.335397861953915;535.6615724874902
4.39822971502571;421.9053321893862
4.461061568097507;374.1383607883202
4.523893421169302;369.428334631396
4.586725274241098;476.27824972612916
4.649557127312894;569.7841684890342
4.71238898038469;581.3883375528994
4.775220833456485;582.3698302305731
4.838052686528282;559.7121891632472
4.900884539600077;508.99409838066515
4.9637163926718735;473.7915633200473
5.026548245743669;406.3223905047737
5.0893800988154645;382.00922547784506
5.15221195188726;340.8785659695165
5.215043804959057;304.7373972881104
5.277875658030853;313.52770247169883
5.340707511102648;357.3792157344501
5.403539364174444;414.14836424296226
5.466371217246239;373.5144531654753
5.529203070318036;382.6770281012349
5.592034923389832;334.5470331924918
5.654866776461628;333.4869911686641
5.717698629533423;356.12459172997006
5.780530482605219;320.03993441600886
5.843362335677015;264.1371300537529
5.906194188748811;195.59168023574136
5.969026041820607;218.30405482049164
6.031857894892402;229.84491374198134
6.094689747964199;261.554313124832
6.157521601035994;273.56473578891683
6.220353454107791;279.96858378143475
6.283185307179586;267.0252663575879
6.346017160251382;202.43014549312562
6.408849013323178;201.78189446210936
6.471680866394974;228.28790798891808
6.53451271946677;232.32177722315328
6.5973445725385655;267.33702045807917
6.660176425610362;275.8888252542884
6.7230082786821574;221.45285963718283
6.785840131753953;204.4507840660587
6.8486719848257485;177.01876057800652
6.911503837897545;187.29073093994117
6.974335690969341;206.888115300272
7.037167544041137;171.6450072165414
7.099999397112932;208.00304571441686
7.162831250184728;221.76693444501666
7.225663103256525;249.12668504306075
7.288494956328321;257.5741460834202
7.351326809400116;216.96721417792418
7.414158662471912;222.14868016893004
7.476990515543707;262.40184285088316
7.539822368615503;258.45846109814306
7.6026542216873;202.3875376328959
7.665486074759095;159.66095981514954
7.728317927830891;164.00880593069044
7.791149780902686;180.22582166522557
7.853981633974482;195.699540208037
7.916813487046279;161.81590154284686
7.979645340118075;206.2883348581056
8.042477193189871;197.09413642180704
8.105309046261667;182.2747401635799
8.168140899333462;186.6134703403985
8.230972752405258;190.80002377149782
8.293804605477055;193.92262571047038
8.35663645854885;178.70292556321868
8.419468311620646;183.8604696000962
8.482300164692441;172.98339623924733
8.545132017764239;191.17890553925685
8.607963870836034;206.68625942938854
8.67079572390783;187.20076698551128
8.733627576979625;157.02573140681068
8.79645943005142;154.32093900444167
8.859291283123216;160.71120963058013
8.922123136195014;158.7538065446159
8.984954989266809;206.77015884808858
9.047786842338605;189.1846004473466
9.1106186954104;179.72479194217166
9.173450548482196;161.39962436769054
9.236282401553993;143.76817104215073
9.299114254625788;137.42877178105712
9.361946107697584;119.65658022948351
9.42477796076938;105.7187631400478
9.487609813841175;142.87818579838634
9.55044166691297;144.10793277082587
9.613273519984768;130.13225603227053
9.676105373056563;127.11984024308116
9.738937226128359;136.26501377990672
9.801769079200154;125.26102426692422
9.86460093227195;122.99817131830477
9.927432785343747;124.21310880300678
9.990264638415542;120.70045951431445
10.053096491487338;114.86698026516997
10.115928344559133;112.10594718632665
10.178760197630929;108.53357194722327
10.241592050702724;124.09616395720944
10.30442390377452;132.67954476628123
10.367255756846316;110.20121202590579
10.430087609918115;87.38387991405882
10.49291946298991;97.38957783780769
10.555751316061706;103.36631170686563
10.618583169133501;95.55178598204968
10.681415022205297;80.60569807889144
10.744246875277092;91.38075199772159
10.807078728348888;95.6642883768507
10.869910581420683;111.59817218072715
10.932742434492479;122.9493029077983
10.995574287564274;125.9925758586071
11.058406140636071;127.15634051926334
11.121237993707869;129.59897336352745
11.184069846779664;120.55634531550636
11.24690169985146;111.25795748897535
11.309733552923255;94.75470415439116
11.37256540599505;91.23521496405058
11.435397259066846;102.04390186804304
11.498229112138642;85.34770379274036
11.561060965210437;76.17766320056685
11.623892818282235;72.97878075688506
11.68672467135403;83.27710892711077
11.749556524425827;79.24180865641918
11.812388377497623;91.65668418135327
11.875220230569418;74.77784808930649
11.938052083641214;77.038503017626
12.00088393671301;75.51900870787091
12.063715789784805;70.30875823259134
12.1265476428566;70.78415006139282
12.189379495928398;67.42606664393932
12.252211349000193;60.840983026682
12.315043202071989;66.65472030105082
12.377875055143784;72.56744765780375
12.440706908215581;76.70985527857111
12.503538761287377;61.38880858782124
12.566370614359172;50.537259810251044
12.629202467430968;57.55629965147215
12.692034320502763;38.78198951161135
12.75486617357456;40.432
12.817698026646356;38.78198951161135
12.880529879718152;57.55629965147215
12.943361732789947;50.537259810251044
13.006193585861743;61.38880858782124
13.06902543893354;76.70985527857111
13.131857292005336;72.56744765780375
13.194689145077131;66.65472030105082
13.257520998148927;60.840983026682
13.320352851220724;67.42606664393932
13.38318470429252;70.78415006139282
13.446016557364315;70.30875823259134
13.50884841043611;75.51900870787091
13.571680263507906;77.038503017626
13.634512116579701;74.77784808930649
13.697343969651497;91.65668418135327
13.760175822723294;79.24180865641918
13.82300767579509;83.27710892711077
13.885839528866887;72.97878075688506
13.948671381938683;76.17766320056685
14.011503235010478;85.34770379274036
14.074335088082274;102.04390186804304
14.137166941154069;91.23521496405058
14.199998794225865;94.75470415439116
14.26283064729766;111.25795748897535
14.325662500369456;120.55634531550636
14.388494353441251;129.59897336352745
14.45132620651305;127.15634051926334
14.514158059584846;125.9925758586071
14.576989912656641;122.9493029077983
14.639821765728437;111.59817218072715
14.702653618800232;95.6642883768507
14.765485471872028;91.38075199772159
14.828317324943823;80.60569807889144
14.891149178015619;95.55178598204968
14.953981031087414;103.36631170686563
15.01681288415921;97.38957783780769
15.079644737231005;87.38387991405882
15.142476590302804;110.20121202590579
15.2053084433746;132.67954476628123
15.268140296446395;124.09616395720944
15.33097214951819;108.53357194722327
15.393804002589986;112.10594718632665
15.456635855661782;114.86698026516997
15.519467708733577;120.70045951431445
15.582299561805373;124.21310880300678
15.645131414877168;122.99817131830477
15.707963267948964;125.26102426692422
15.770795121020763;136.26501377990672
15.833626974092558;127.11984024308116
15.896458827164354;130.13225603227053
15.95929068023615;144.10793277082587
16.022122533307947;142.87818579838634
16.084954386379742;105.7187631400478
16.147786239451538;119.65658022948351
16.210618092523333;137.42877178105712
16.27344994559513;143.76817104215073
16.336281798666924;161.39962436769054
16.39911365173872;179.72479194217166
16.461945504810515;189.1846004473466
16.524777357882314;206.77015884808858
16.58760921095411;158.7538065446159
16.650441064025905;160.71120963058013
16.7132729170977;154.32093900444167
16.776104770169496;157.02573140681068
16.838936623241292;187.20076698551128
16.901768476313087;206.68625942938854
16.964600329384883;191.17890553925685
17.02743218245668;172.98339623924733
17.090264035528477;183.8604696000962
17.153095888600273;178.70292556321868
17.21592774167207;193.92262571047038
17.278759594743864;190.80002377149782
17.34159144781566;186.6134703403985
17.404423300887455;182.2747401635799
17.46725515395925;197.09413642180704
17.530087007031046;206.2883348581056
17.59291886010284;161.81590154284686
17.655750713174637;195.699540208037
17.718582566246432;180.22582166522557
17.78141441931823;164.00880593069044
17.844246272390027;159.66095981514954
17.907078125461823;202.3875376328959
17.969909978533618;258.45846109814306
18.032741831605414;262.40184285088316
18.09557368467721;222.14868016893004
18.158405537749005;216.96721417792418
18.2212373908208;257.5741460834202
18.284069243892596;249.12668504306075
18.34690109696439;221.76693444501666
18.409732950036187;208.00304571441686
18.472564803107986;171.6450072165414
18.53539665617978;206.888115300272
18.598228509251577;187.29073093994117
18.661060362323372;177.01876057800652
18.723892215395168;204.4507840660587
18.786724068466963;221.45285963718283
18.84955592153876;275.8888252542884
18.912387774610554;267.33702045807917
18.97521962768235;232.32177722315328
19.038051480754145;228.28790798891808
19.10088333382594;201.78189446210936
19.16371518689774;202.43014549312562
19.226547039969535;267.0252663575879
19.28937889304133;279.96858378143475
19.352210746113126;273.56473578891683
19.415042599184922;261.554313124832
19.477874452256717;229.84491374198134
19.540706305328513;218.30405482049164
19.60353815840031;195.59168023574136
19.666370011472104;264.1371300537529
19.7292018645439;320.03993441600886
19.7920337176157;356.12459172997006
19.854865570687494;333.4869911686641
19.91769742375929;334.5470331924918
19.980529276831085;382.6770281012349
20.04336112990288;373.5144531654753
20.106192982974676;414.14836424296226
20.16902483604647;357.3792157344501
20.231856689118267;313.52770247169883
20.294688542190062;304.7373972881104
20.357520395261858;340.8785659695165
20.420352248333653;382.00922547784506
20.48318410140545;406.3223905047737
20.546015954477248;473.7915633200473
20.60884780754904;508.99409838066515
20.67167966062084;559.7121891632472
20.73451151369263;582.3698302305731
20.79734336676443;581.3883375528994
20.86017521983623;569.7841684890342
20.92300707290802;476.27824972612916
20.98583892597982;369.428334631396
21.048670779051612;374.1383607883202
21.11150263212341;421.9053321893862
21.174334485195203;535.6615724874902
21.237166338267002;525.8927375109888
21.299998191338794;475.20694749670207
21.362830044410593;449.1451351197007
21.425661897482385;500.0379121865928
21.488493750554184;667.3169221686449
21.551325603625983;813.1024436703287
21.614157456697775;830.4786628849795
21.676989309769574;777.4356891944357
21.739821162841366;768.2171965559905
21.802653015913165;868.1928224875825
21.865484868984957;832.4805510087824
21.928316722056756;864.3261941297568
21.99114857512855;931.4054855153214
22.053980428200347;1161.4798466371017
22.116812281272143;1359.7716039836819
22.17964413434394;1497.586968523457
22.242475987415737;1470.7392776019046
22.30530784048753;1487.5755619301299
22.36813969355933;1492.5380046933185
22.43097154663112;1175.9700562609987
22.49380339970292;1013.1884449798131
22.55663525277471;878.3436966483422
22.61946710584651;963.7966631959157
22.682298958918306;1104.458117536696
22.7451308119901;1138.0697185369947
22.8079626650619;1341.628792310734
22.870794518133692;1320.9264574948945
22.93362637120549;985.3230855648173
22.996458224277283;1111.6803307368132
23.059290077349083;1339.4591826942212
23.122121930420874;1571.1799244875028
23.184953783492674;1622.221918792964
23.24778563656447;1644.870630371037
23.310617489636265;1902.9314576823576
23.37344934270806;1950.2886127615343
23.436281195779856;1790.5814416825338
23.499113048851655;2017.0484806716295
23.561944901923447;2003.5501512879794
23.624776754995246;2150.2271141258166
23.687608608067038;2938.388754892356
23.750440461138837;3707.5978740085043
23.813272314210632;4473.973184484349
23.876104167282428;3982.841874199762
23.938936020354223;3745.0512860171093
24.00176787342602;3747.572503248874
24.064599726497814;3747.5977054646314
24.12743157956961;4810.984756481734
24.19026343264141;6513.866512023241
24.2530952857132;7132.622081943265
24.315927138785;8251.939618810822
24.378758991856795;7974.147502651136
24.44159084492859;7259.671649057371
24.504422698000386;8515.637061172441
24.567254551072182;10948.214746938951
24.630086404143977;12938.31179064841
24.692918257215773;17724.69130989615
24.75575011028757;19493.40902142725
24.818581963359364;27410.67966200962
24.881413816431163;48589.88914838252
24.94424566950296;85565.95304936719
25.007077522574754;163285.02654097925
25.06990937564655;320769.86441842123
25.132741228718345;644444.3996057302
25.19557308179014;1351461.383595213
25.258404934861936;2918617.950624724
25.32123678793373;5882658.650100167
25.384068641005527;10450363.404134179
25.446900494077322;16202529.384786721
