frequency;power spectrum
0.0;20104272.296
0.06283185307179587;16242474.83951301
0.12566370614359174;10442377.28136495
0.18849555921538758;5913645.08431037
0.25132741228718347;2905305.3407771657
0.3141592653589793;1359392.3990140946
0.37699111843077515;649308.351664406
0.43982297150257105;322252.2255645546
0.5026548245743669;165492.12784979743
0.5654866776461628;86101.29125693603
0.6283185307179586;48452.56673852227
0.6911503837897545;27137.329942304204
0.7539822368615503;19779.789311924884
0.8168140899333463;17600.73499677118
0.8796459430051421;13077.821339253496
0.9424777960769378;10426.947608623823
1.0053096491487339;7863.305975946244
1.0681415022205298;6993.1386580473645
1.1309733552923256;8065.469787202188
1.1938052083641213;8283.709499506236
1.2566370614359172;7541.006619661465
1.3194689145077132;6580.069043801058
1.382300767579509;4775.394401674318
1.4451326206513047;3820.5379868304194
1.5079644737231006;3862.028251311436
1.5707963267948966;3829.6900804886795
1.6336281798666925;4246.71761647514
1.6964600329384882;4271.528777083129
1.7592918860102842;3687.830482048314
1.8221237390820801;3012.161989370448
1.8849555921538756;2192.9898438314385
1.9477874452256716;1981.4285356523094
2.0106192982974678;1884.0430701856803
2.0734511513692637;1874.2367026589757
2.1362830044410597;1924.7493539379416
2.199114857512855;1972.320317535382
2.261946710584651;1576.584817991894
2.324778563656447;1516.2826010223177
2.3876104167282426;1520.2499893599957
2.4504422698000385;1347.4264668742135
2.5132741228718345;1079.234086929445
2.57610597594363;1024.1777903587858
2.6389378290154264;1326.3991969669162
2.701769682087222;1336.622759211712
2.764601535159018;1100.8735766292039
2.827433388230814;1080.608056401414
2.8902652413026093;1022.3879169751675
2.9530970943744057;933.8695411945199
3.015928947446201;1036.6412374392414
3.078760800517997;1235.3037029870488
3.141592653589793;1479.964757613352
3.204424506661589;1507.6236214237902
3.267256359733385;1458.5826907655598
3.330088212805181;1514.202958338252
3.3929200658769765;1403.361630459232
3.4557519189487724;1136.279932919386
3.5185837720205684;995.8882391363877
3.581415625092364;778.5901763687975
3.6442474781641603;815.1283399170694
3.707079331235956;815.5956343369701
3.7699111843077513;812.3998534558607
3.8327430373795477;805.2728646459566
3.895574890451343;826.8147393569102
3.9584067435231396;848.693135694736
4.0212385965949355;685.1060077435749
4.084070449666731;513.3726241561847
4.1469023027385274;460.2074840326727
4.209734155810323;468.9879020671486
4.272566008882119;517.1301832172775
4.335397861953915;538.8797242940649
4.39822971502571;421.7636130638266
4.461061568097507;367.6785825292276
4.523893421169302;396.4939660631131
4.586725274241098;508.86182701368807
4.649557127312894;592.9994166788074
4.71238898038469;576.7449279638194
4.775220833456485;589.7957508470757
4.838052686528282;516.5616432690572
4.900884539600077;501.3268258202495
4.9637163926718735;461.65921162416686
5.026548245743669;405.54958954971926
5.0893800988154645;381.4149975710121
5.15221195188726;364.5527834845372
5.215043804959057;311.8446620623453
5.277875658030853;303.58817896247393
5.340707511102648;345.9427601030546
5.403539364174444;390.59536261536
5.466371217246239;377.50495178942344
5.529203070318036;384.16717188363333
5.592034923389832;334.4693461893732
5.654866776461628;329.48114480029244
5.717698629533423;359.5437176895232
5.780530482605219;319.54593846920983
5.843362335677015;251.44338956843544
5.906194188748811;185.7437139047489
5.969026041820607;223.23599439838154
6.031857894892402;234.74549161051635
6.094689747964199;256.48028716438927
6.157521601035994;274.9680895872693
6.220353454107791;285.5681287360054
6.283185307179586;268.61992708548274
6.346017160251382;211.8824508363726
6.408849013323178;192.40971077581952
6.471680866394974;199.49009206258708
6.53451271946677;224.02797678838917
6.5973445725385655;244.91611551495959
6.660176425610362;248.2168865726247
6.7230082786821574;252.31304277992965
6.785840131753953;213.1503548599293
6.8486719848257485;176.14303521365997
6.911503837897545;184.64083588805093
6.974335690969341;200.04173346946962
7.037167544041137;180.60625827547628
7.099999397112932;222.7127479407297
7.162831250184728;229.2445202741392
7.225663103256525;248.46023152026726
7.288494956328321;261.4089341494997
7.351326809400116;208.3760548714233
7.414158662471912;229.93903449330958
7.476990515543707;266.3734710714597
7.539822368615503;249.62730818263213
7.6026542216873;204.2079945201786
7.665486074759095;178.26731477187047
7.728317927830891;148.57295545687708
7.791149780902686;201.19490497840994
7.853981633974482;185.538390273679
7.916813487046279;159.1850664694449
7.979645340118075;193.96299181034976
8.042477193189871;188.48692068103645
8.105309046261667;180.0205108921446
8.168140899333462;186.92354270021275
8.230972752405258;190.23283703591778
8.293804605477055;192.62829788362387
8.35663645854885;184.57915040863733
8.419468311620646;183.78671665411537
8.482300164692441;163.77958886733185
8.545132017764239;181.6555000104589
8.607963870836034;205.4306797089463
8.67079572390783;192.42181096097457
8.733627576979625;166.36080620726
8.79645943005142;158.2932651934356
8.859291283123216;148.73407928912795
8.922123136195014;164.02786682719176
8.984954989266809;204.27674400890106
9.047786842338605;195.88249278669946
9.1106186954104;174.46705884012852
9.173450548482196;164.35962896591175
9.236282401553993;135.18690984234652
9.299114254625788;150.6376667730814
9.361946107697584;118.4902286326154
9.42477796076938;108.31448545642935
9.487609813841175;148.5563998125974
9.55044166691297;140.4205963909317
9.613273519984768;132.17402197541645
9.676105373056563;122.29592241386801
9.738937226128359;131.51219221306118
9.801769079200154;123.12523473597136
9.86460093227195;123.32810850135476
9.927432785343747;123.2649072217185
9.990264638415542;118.17798044822216
10.053096491487338;112.58520853495394
10.115928344559133;115.63905676499053
10.178760197630929;112.74941042818577
10.241592050702724;123.88039476028833
10.30442390377452;130.28976145228188
10.367255756846316;115.08996290483374
10.430087609918115;87.3270573978341
10.49291946298991;101.90434745729955
10.555751316061706;98.29383762966056
10.618583169133501;93.64646847875875
10.681415022205297;84.24707172303106
10.744246875277092;92.53647055208488
10.807078728348888;93.00303323856747
10.869910581420683;109.46465670613601
10.932742434492479;119.20472593343037
10.995574287564274;125.09822345432052
11.058406140636071;128.1855549464467
11.121237993707869;128.6800747515126
11.184069846779664;114.27869957070082
11.24690169985146;109.94970979997265
11.309733552923255;95.49835003240352
11.37256540599505;91.25977584391003
11.435397259066846;96.25477714515517
11.498229112138642;89.62981007883658
11.561060965210437;77.45753046162942
11.623892818282235;76.62200226470418
11.68672467135403;86.20577527538236
11.749556524425827;78.38651138131533
11.812388377497623;90.9682153698456
11.875220230569418;84.29494741135842
11.938052083641214;70.41333422480564
12.00088393671301;74.69999779116783
12.063715789784805;72.65900399720692
12.1265476428566;71.68141909250582
12.189379495928398;66.5141557430541
12.252211349000193;59.36938641340994
12.315043202071989;62.14673385426941
12.377875055143784;70.46068929619412
12.440706908215581;74.86003663948753
12.503538761287377;61.53903849768493
12.566370614359172;52.62612391282394
12.629202467430968;56.53573466981423
12.692034320502763;42.63447962520471
12.75486617357456;37.8
12.817698026646356;42.63447962520471
12.880529879718152;56.53573466981423
12.943361732789947;52.62612391282394
13.006193585861743;61.53903849768493
13.06902543893354;74.86003663948753
13.131857292005336;70.46068929619412
13.194689145077131;62.14673385426941
13.257520998148927;59.36938641340994
13.320352851220724;66.5141557430541
13.38318470429252;71.68141909250582
13.446016557364315;72.65900399720692
13.50884841043611;74.69999779116783
13.571680263507906;70.41333422480564
13.634512116579701;84.29494741135842
13.697343969651497;90.9682153698456
13.760175822723294;78.38651138131533
13.82300767579509;86.20577527538236
13.885839528866887;76.62200226470418
13.948671381938683;77.45753046162942
14.011503235010478;89.62981007883658
14.074335088082274;96.25477714515517
14.137166941154069;91.25977584391003
14.199998794225865;95.49835003240352
14.26283064729766;109.94970979997265
14.325662500369456;114.27869957070082
14.388494353441251;128.6800747515126
14.45132620651305;128.1855549464467
14.514158059584846;125.09822345432052
14.576989912656641;119.20472593343037
14.639821765728437;109.46465670613601
14.702653618800232;93.00303323856747
14.765485471872028;92.53647055208488
14.828317324943823;84.24707172303106
14.891149178015619;93.64646847875875
14.953981031087414;98.29383762966056
15.01681288415921;101.90434745729955
15.079644737231005;87.3270573978341
15.142476590302804;115.08996290483374
15.2053084433746;130.28976145228188
15.268140296446395;123.88039476028833
15.33097214951819;112.74941042818577
15.393804002589986;115.63905676499053
15.456635855661782;112.58520853495394
15.519467708733577;118.17798044822216
15.582299561805373;123.2649072217185
15.645131414877168;123.32810850135476
15.707963267948964;123.12523473597136
15.770795121020763;131.51219221306118
15.833626974092558;122.29592241386801
15.896458827164354;132.17402197541645
15.95929068023615;140.4205963909317
16.022122533307947;148.5563998125974
16.084954386379742;108.31448545642935
16.147786239451538;118.4902286326154
16.210618092523333;150.6376667730814
16.27344994559513;135.18690984234652
16.336281798666924;164.35962896591175
16.39911365173872;174.46705884012852
16.461945504810515;195.88249278669946
16.524777357882314;204.27674400890106
16.58760921095411;164.02786682719176
16.650441064025905;148.73407928912795
16.7132729170977;158.2932651934356
16.776104770169496;166.36080620726
16.838936623241292;192.42181096097457
16.901768476313087;205.4306797089463
16.964600329384883;181.6555000104589
17.02743218245668;163.77958886733185
17.090264035528477;183.78671665411537
17.153095888600273;184.57915040863733
17.21592774167207;192.62829788362387
17.278759594743864;190.23283703591778
17.34159144781566;186.92354270021275
17.404423300887455;180.0205108921446
17.46725515395925;188.48692068103645
17.530087007031046;193.96299181034976
17.59291886010284;159.1850664694449
17.655750713174637;185.538390273679
17.718582566246432;201.19490497840994
17.78141441931823;148.57295545687708
17.844246272390027;178.26731477187047
17.907078125461823;204.2079945201786
17.969909978533618;249.62730818263213
18.032741831605414;266.3734710714597
18.09557368467721;229.93903449330958
18.158405537749005;208.3760548714233
18.2212373908208;261.4089341494997
18.284069243892596;248.46023152026726
18.34690109696439;229.2445202741392
18.409732950036187;222.7127479407297
18.472564803107986;180.60625827547628
18.53539665617978;200.04173346946962
18.598228509251577;184.64083588805093
18.661060362323372;176.14303521365997
18.723892215395168;213.1503548599293
18.786724068466963;252.31304277992965
18.84955592153876;248.2168865726247
18.912387774610554;244.91611551495959
18.97521962768235;224.02797678838917
19.038051480754145;199.49009206258708
19.10088333382594;192.40971077581952
19.16371518689774;211.8824508363726
19.226547039969535;268.61992708548274
19.28937889304133;285.5681287360054
19.352210746113126;274.9680895872693
19.415042599184922;256.48028716438927
19.477874452256717;234.74549161051635
19.540706305328513;223.23599439838154
19.60353815840031;185.7437139047489
19.666370011472104;251.44338956843544
19.7292018645439;319.54593846920983
19.7920337176157;359.5437176895232
19.854865570687494;329.48114480029244
19.91769742375929;334.4693461893732
19.980529276831085;384.16717188363333
20.04336112990288;377.50495178942344
20.106192982974676;390.59536261536
20.16902483604647;345.9427601030546
20.231856689118267;303.58817896247393
20.294688542190062;311.8446620623453
20.357520395261858;364.5527834845372
20.420352248333653;381.4149975710121
20.48318410140545;405.54958954971926
20.546015954477248;461.65921162416686
20.60884780754904;501.3268258202495
20.67167966062084;516.5616432690572
20.73451151369263;589.7957508470757
20.79734336676443;576.7449279638194
20.86017521983623;592.9994166788074
20.92300707290802;508.86182701368807
20.98583892597982;396.4939660631131
21.048670779051612;367.6785825292276
21.11150263212341;421.7636130638266
21.174334485195203;538.8797242940649
21.237166338267002;517.1301832172775
21.299998191338794;468.9879020671486
21.362830044410593;460.2074840326727
21.425661897482385;513.3726241561847
21.488493750554184;685.1060077435749
21.551325603625983;848.693135694736
21.614157456697775;826.8147393569102
21.676989309769574;805.2728646459566
21.739821162841366;812.3998534558607
21.802653015913165;815.5956343369701
21.865484868984957;815.1283399170694
21.928316722056756;778.5901763687975
21.99114857512855;995.8882391363877
22.053980428200347;1136.279932919386
22.116812281272143;1403.361630459232
22.17964413434394;1514.202958338252
22.242475987415737;1458.5826907655598
22.30530784048753;1507.6236214237902
22.36813969355933;1479.964757613352
22.43097154663112;1235.3037029870488
22.49380339970292;1036.6412374392414
22.55663525277471;933.8695411945199
22.61946710584651;1022.3879169751675
22.682298958918306;1080.608056401414
22.7451308119901;1100.8735766292039
22.8079626650619;1336.622759211712
22.870794518133692;1326.3991969669162
22.93362637120549;1024.1777903587858
22.996458224277283;1079.234086929445
23.059290077349083;1347.4264668742135
23.122121930420874;1520.2499893599957
23.184953783492674;1516.2826010223177
23.24778563656447;1576.584817991894
23.310617489636265;1972.320317535382
23.37344934270806;1924.7493539379416
23.436281195779856;1874.2367026589757
23.499113048851655;1884.0430701856803
23.561944901923447;1981.4285356523094
23.624776754995246;2192.9898438314385
23.687608608067038;3012.161989370448
23.750440461138837;3687.830482048314
23.813272314210632;4271.528777083129
23.876104167282428;4246.71761647514
23.938936020354223;3829.6900804886795
24.00176787342602;3862.028251311436
24.064599726497814;3820.5379868304194
24.12743157956961;4775.394401674318
24.19026343264141;6580.069043801058
24.2530952857132;7541.006619661465
24.315927138785;8283.709499506236
24.378758991856795;8065.469787202188
24.44159084492859;6993.1386580473645
24.504422698000386;7863.305975946244
24.567254551072182;10426.947608623823
24.630086404143977;13077.821339253496
24.692918257215773;17600.73499677118
24.75575011028757;19779.789311924884
24.818581963359364;27137.329942304204
24.881413816431163;48452.56673852227
24.94424566950296;86101.29125693603
25.007077522574754;165492.12784979743
25.06990937564655;322252.2255645546
25.132741228718345;649308.351664406
25.19557308179014;1359392.3990140946
25.258404934861936;2905305.3407771657
25.32123678793373;5913645.08431037
25.384068641005527;10442377.28136495
25.446900494077322;16242474.83951301
