frequency;power spectrum
0.0;258215.872
0.06283185307179587;181263.79554470596
0.12566370614359174;86808.1567826019
0.18849555921538758;46608.061977251426
0.25132741228718347;29083.71821208463
0.3141592653589793;18925.986943126347
0.37699111843077515;13231.691851699765
0.43982297150257105;10190.167604298857
0.5026548245743669;7805.5631427876215
0.5654866776461628;6457.458923596683
0.6283185307179586;5096.010189197098
0.6911503837897545;4273.4192514755405
0.7539822368615503;3753.269613174713
0.8168140899333463;3105.8467568569035
0.8796459430051421;2814.8305456280045
0.9424777960769378;2561.684596485288
1.0053096491487339;2363.3167807506798
1.0681415022205298;1993.5297847479148
1.1309733552923256;1785.2717870101897
1.1938052083641213;1661.730344482598
1.2566370614359172;1433.0336357070528
1.3194689145077132;1271.5027322959745
1.382300767579509;1203.985552803875
1.4451326206513047;1119.475804949423
1.5079644737231006;988.7509344196613
1.5707963267948966;916.15635658996
1.6336281798666925;885.9321113106324
1.6964600329384882;855.8756084195693
1.7592918860102842;784.3259083987919
1.8221237390820801;722.5390617461239
1.8849555921538756;668.7652162337675
1.9477874452256716;613.0949584682064
2.0106192982974678;600.4350533696845
2.0734511513692637;570.355699107317
2.1362830044410597;526.9738014756653
2.199114857512855;490.4458168200512
2.261946710584651;460.1265759386865
2.324778563656447;438.7946691851727
2.3876104167282426;451.94882703386423
2.4504422698000385;426.7329819969482
2.5132741228718345;380.9442460737324
2.57610597594363;368.5163446511406
2.6389378290154264;363.9882097606139
2.701769682087222;344.9186015251371
2.764601535159018;334.1109191972438
2.827433388230814;320.21440986604733
2.8902652413026093;289.88073725491995
2.9530970943744057;280.29172354953687
3.015928947446201;282.89932375090905
3.078760800517997;281.4230997556497
3.141592653589793;255.45686317767888
3.204424506661589;233.80993106367507
3.267256359733385;226.38634717685005
3.330088212805181;233.43698138473934
3.3929200658769765;234.40074966197963
3.4557519189487724;229.7901070961346
3.5185837720205684;211.7280404559245
3.581415625092364;199.44384286740416
3.6442474781641603;191.9086837287946
3.707079331235956;187.80905030290322
3.7699111843077513;188.94286308174054
3.8327430373795477;177.6489615227133
3.895574890451343;173.25019248332333
3.9584067435231396;163.06991867773334
4.0212385965949355;168.2391994554632
4.084070449666731;174.30550064652607
4.1469023027385274;162.32737037321235
4.209734155810323;148.26145719013664
4.272566008882119;143.86540397514855
4.335397861953915;148.57079190312658
4.39822971502571;145.10044466225818
4.461061568097507;145.3290000757437
4.523893421169302;141.59079527697423
4.586725274241098;144.5117300039914
4.649557127312894;146.32860164068967
4.71238898038469;141.0874718014334
4.775220833456485;131.05387586848641
4.838052686528282;124.923772874105
4.900884539600077;121.17055779882733
4.9637163926718735;118.365606042226
5.026548245743669;118.58979323338873
5.0893800988154645;113.75176142724632
5.15221195188726;110.93609140781915
5.215043804959057;112.90857610964221
5.277875658030853;116.84657180365862
5.340707511102648;112.75569810606257
5.403539364174444;107.65257768218459
5.466371217246239;111.28669894929206
5.529203070318036;109.00864761099645
5.592034923389832;103.38412590394879
5.654866776461628;100.36053455163373
5.717698629533423;102.00703473961138
5.780530482605219;103.72515301884664
5.843362335677015;100.94525282807977
5.906194188748811;93.89549431583214
5.969026041820607;99.51658809934057
6.031857894892402;97.67874345789926
6.094689747964199;93.94798998508551
6.157521601035994;90.12620481312482
6.220353454107791;91.98848912210221
6.283185307179586;93.10486410272837
6.346017160251382;91.51903129691104
6.408849013323178;88.28905721288788
6.471680866394974;84.83869788848912
6.53451271946677;81.69555376333761
6.5973445725385655;81.8144172923047
6.660176425610362;84.93586984040131
6.7230082786821574;86.3212406598783
6.785840131753953;83.53508943719667
6.8486719848257485;81.69247764845082
6.911503837897545;79.14438119160923
6.974335690969341;77.74809946732125
7.037167544041137;78.40284902897857
7.099999397112932;79.4169694592108
7.162831250184728;76.02162400365721
7.225663103256525;74.3913073576794
7.288494956328321;75.91749252716689
7.351326809400116;76.01405669339472
7.414158662471912;76.14915957839224
7.476990515543707;77.50129517545128
7.539822368615503;75.83012224083014
7.6026542216873;73.70943665125925
7.665486074759095;72.74613224455953
7.728317927830891;68.77860881065308
7.791149780902686;66.5714525372426
7.853981633974482;64.42165047656687
7.916813487046279;65.76806562366484
7.979645340118075;63.94349849755754
8.042477193189871;60.63193808240847
8.105309046261667;59.571646279042795
8.168140899333462;57.663332817722846
8.230972752405258;54.02858822195192
8.293804605477055;54.8707884880044
8.35663645854885;56.31868607577989
8.419468311620646;52.977031145765395
8.482300164692441;47.87835737113487
8.545132017764239;45.67543775715118
8.607963870836034;45.612
8.67079572390783;45.67543775715118
8.733627576979625;47.87835737113487
8.79645943005142;52.977031145765395
8.859291283123216;56.31868607577989
8.922123136195014;54.8707884880044
8.984954989266809;54.02858822195192
9.047786842338605;57.663332817722846
9.1106186954104;59.571646279042795
9.173450548482196;60.63193808240847
9.236282401553993;63.94349849755754
9.299114254625788;65.76806562366484
9.361946107697584;64.42165047656687
9.42477796076938;66.5714525372426
9.487609813841175;68.77860881065308
9.55044166691297;72.74613224455953
9.613273519984768;73.70943665125925
9.676105373056563;75.83012224083014
9.738937226128359;77.50129517545128
9.801769079200154;76.14915957839224
9.86460093227195;76.01405669339472
9.927432785343747;75.91749252716689
9.990264638415542;74.3913073576794
10.053096491487338;76.02162400365721
10.115928344559133;79.4169694592108
10.178760197630929;78.40284902897857
10.241592050702724;77.74809946732125
10.30442390377452;79.14438119160923
10.367255756846316;81.69247764845082
10.430087609918115;83.53508943719667
10.49291946298991;86.3212406598783
10.555751316061706;84.93586984040131
10.618583169133501;81.8144172923047
10.681415022205297;81.69555376333761
10.744246875277092;84.83869788848912
10.807078728348888;88.28905721288788
10.869910581420683;91.51903129691104
10.932742434492479;93.10486410272837
10.995574287564274;91.98848912210221
11.058406140636071;90.12620481312482
11.121237993707869;93.94798998508551
11.184069846779664;97.67874345789926
11.24690169985146;99.51658809934057
11.309733552923255;93.89549431583214
11.37256540599505;100.94525282807977
11.435397259066846;103.72515301884664
11.498229112138642;102.00703473961138
11.561060965210437;100.36053455163373
11.623892818282235;103.38412590394879
11.68672467135403;109.00864761099645
11.749556524425827;111.28669894929206
11.812388377497623;107.65257768218459
11.875220230569418;112.75569810606257
11.938052083641214;116.84657180365862
12.00088393671301;112.90857610964221
12.063715789784805;110.93609140781915
12.1265476428566;113.75176142724632
12.189379495928398;118.58979323338873
12.252211349000193;118.365606042226
12.315043202071989;121.17055779882733
12.377875055143784;124.923772874105
12.440706908215581;131.05387586848641
12.503538761287377;141.0874718014334
12.566370614359172;146.32860164068967
12.629202467430968;144.5117300039914
12.692034320502763;141.59079527697423
12.75486617357456;145.3290000757437
12.817698026646356;145.10044466225818
12.880529879718152;148.57079190312658
12.943361732789947;143.86540397514855
13.006193585861743;148.26145719013664
13.06902543893354;162.32737037321235
13.131857292005336;174.30550064652607
13.194689145077131;168.2391994554632
13.257520998148927;163.06991867773334
13.320352851220724;173.25019248332333
13.38318470429252;177.6489615227133
13.446016557364315;188.94286308174054
13.50884841043611;187.80905030290322
13.571680263507906;191.9086837287946
13.634512116579701;199.44384286740416
13.697343969651497;211.7280404559245
13.760175822723294;229.7901070961346
13.82300767579509;234.40074966197963
13.885839528866887;233.43698138473934
13.948671381938683;226.38634717685005
14.011503235010478;233.80993106367507
14.074335088082274;255.45686317767888
14.137166941154069;281.4230997556497
14.199998794225865;282.89932375090905
14.26283064729766;280.29172354953687
14.325662500369456;289.88073725491995
14.388494353441251;320.21440986604733
14.45132620651305;334.1109191972438
14.514158059584846;344.9186015251371
14.576989912656641;363.9882097606139
14.639821765728437;368.5163446511406
14.702653618800232;380.9442460737324
14.765485471872028;426.7329819969482
14.828317324943823;451.94882703386423
14.891149178015619;438.7946691851727
14.953981031087414;460.1265759386865
15.01681288415921;490.4458168200512
15.079644737231005;526.9738014756653
15.142476590302804;570.355699107317
15.2053084433746;600.4350533696845
15.268140296446395;613.0949584682064
15.33097214951819;668.7652162337675
15.393804002589986;722.5390617461239
15.456635855661782;784.3259083987919
15.519467708733577;855.8756084195693
15.582299561805373;885.9321113106324
15.645131414877168;916.15635658996
15.707963267948964;988.7509344196613
15.770795121020763;1119.475804949423
15.833626974092558;1203.985552803875
15.896458827164354;1271.5027322959745
15.95929068023615;1433.0336357070528
16.022122533307947;1661.730344482598
16.084954386379742;1785.2717870101897
16.147786239451538;1993.5297847479148
16.210618092523333;2363.3167807506798
16.27344994559513;2561.684596485288
16.336281798666924;2814.8305456280045
16.39911365173872;3105.8467568569035
16.461945504810515;3753.269613174713
16.524777357882314;4273.4192514755405
16.58760921095411;5096.010189197098
16.650441064025905;6457.458923596683
16.7132729170977;7805.5631427876215
16.776104770169496;10190.167604298857
16.838936623241292;13231.691851699765
16.901768476313087;18925.986943126347
16.964600329384883;29083.71821208463
17.02743218245668;46608.061977251426
17.090264035528477;86808.1567826019
17.153095888600273;181263.79554470596
