frequency;power spectrum
0.0;258215.872
0.06283185307179587;180033.89249499788
0.12566370614359174;83011.1063423578
0.18849555921538758;45825.93273360662
0.25132741228718347;28005.9590991047
0.3141592653589793;17890.23839837745
0.37699111843077515;12666.442961291807
0.43982297150257105;9676.99323550758
0.5026548245743669;7847.972158759689
0.5654866776461628;6705.521804073774
0.6283185307179586;5523.842602025717
0.6911503837897545;4720.024029858642
0.7539822368615503;4047.7941051735347
0.8168140899333463;3376.1019972026534
0.8796459430051421;2884.3046730498436
0.9424777960769378;2466.3653536189527
1.0053096491487339;2150.352371616272
1.0681415022205298;1928.1330805481919
1.1309733552923256;1773.9517290753147
1.1938052083641213;1588.2367924412151
1.2566370614359172;1461.0432408044273
1.3194689145077132;1317.7107120705678
1.382300767579509;1197.6190375645826
1.4451326206513047;1137.6386950300032
1.5079644737231006;1004.8999463905815
1.5707963267948966;959.5483274299714
1.6336281798666925;904.3486946824715
1.6964600329384882;824.5359372272676
1.7592918860102842;764.118156592821
1.8221237390820801;714.0371451336355
1.8849555921538756;665.2405588517998
1.9477874452256716;620.7760412569878
2.0106192982974678;598.3984410340387
2.0734511513692637;573.0827849765224
2.1362830044410597;545.2151522049869
2.199114857512855;504.9680757079056
2.261946710584651;460.0743435491206
2.324778563656447;436.37697298189465
2.3876104167282426;419.77378583214403
2.4504422698000385;418.16569186876814
2.5132741228718345;405.46749303575456
2.57610597594363;378.380009904068
2.6389378290154264;352.7642371243239
2.701769682087222;344.59272910108905
2.764601535159018;326.9609122056344
2.827433388230814;310.066173265834
2.8902652413026093;301.8793903929529
2.9530970943744057;291.8672237943538
3.015928947446201;278.79249734815266
3.078760800517997;268.77751888037403
3.141592653589793;258.1163948773573
3.204424506661589;250.15765926367072
3.267256359733385;233.91871810259093
3.330088212805181;230.79898527881974
3.3929200658769765;228.9033844350089
3.4557519189487724;224.04431864341947
3.5185837720205684;222.21764463175538
3.581415625092364;215.5695973487301
3.6442474781641603;198.58728207272821
3.707079331235956;192.23937743526443
3.7699111843077513;180.63495715512076
3.8327430373795477;172.9849815419933
3.895574890451343;171.23726701574324
3.9584067435231396;175.12052776042057
4.0212385965949355;174.7375648003198
4.084070449666731;168.15316369052886
4.1469023027385274;158.66343634471605
4.209734155810323;159.64776232636692
4.272566008882119;154.70267368104015
4.335397861953915;155.83066132055473
4.39822971502571;151.4176194222405
4.461061568097507;145.88425202362313
4.523893421169302;144.3614607323522
4.586725274241098;146.94105182571823
4.649557127312894;147.89378043186386
4.71238898038469;144.5346878721963
4.775220833456485;136.68568998657867
4.838052686528282;129.3494583165002
4.900884539600077;126.47621750544386
4.9637163926718735;120.0892707185932
5.026548245743669;118.47571053769434
5.0893800988154645;120.85379985632115
5.15221195188726;119.88316581707377
5.215043804959057;120.63564086837683
5.277875658030853;117.85230314970589
5.340707511102648;108.15931123606448
5.403539364174444;106.92208871172997
5.466371217246239;109.01571721073512
5.529203070318036;106.36276021858187
5.592034923389832;102.38919445544198
5.654866776461628;104.37177423752749
5.717698629533423;106.64216270907677
5.780530482605219;105.73237849807023
5.843362335677015;105.51584776010148
5.906194188748811;97.92757671263611
5.969026041820607;90.48112320189931
6.031857894892402;93.62292256530321
6.094689747964199;94.52959936182654
6.157521601035994;93.48540252843893
6.220353454107791;95.3525226974185
6.283185307179586;95.15283203389797
6.346017160251382;93.03772835189818
6.408849013323178;87.78905732050292
6.471680866394974;87.73248512957876
6.53451271946677;80.66007430475435
6.5973445725385655;82.96673960228397
6.660176425610362;84.5950190610643
6.7230082786821574;84.65055132411601
6.785840131753953;85.09088241389688
6.8486719848257485;82.57688672209142
6.911503837897545;81.71975939002347
6.974335690969341;82.06035701128908
7.037167544041137;77.97653037901654
7.099999397112932;74.9717459691676
7.162831250184728;76.3181740445801
7.225663103256525;76.4681652348668
7.288494956328321;72.50892175132101
7.351326809400116;70.75928702718815
7.414158662471912;72.79605626272912
7.476990515543707;74.47395554436206
7.539822368615503;75.17536706295289
7.6026542216873;73.45094416763602
7.665486074759095;70.23385151446304
7.728317927830891;70.65749086824401
7.791149780902686;68.8253832035281
7.853981633974482;66.84736387458857
7.916813487046279;65.74713252449389
7.979645340118075;64.05695303969179
8.042477193189871;60.20578296525818
8.105309046261667;55.271441474718415
8.168140899333462;53.26768192881685
8.230972752405258;50.2246003272893
8.293804605477055;52.030661736685474
8.35663645854885;55.839749248625715
8.419468311620646;52.381292358155726
8.482300164692441;45.49792149644082
8.545132017764239;43.69443550371571
8.607963870836034;43.812
8.67079572390783;43.69443550371571
8.733627576979625;45.49792149644082
8.79645943005142;52.381292358155726
8.859291283123216;55.839749248625715
8.922123136195014;52.030661736685474
8.984954989266809;50.2246003272893
9.047786842338605;53.26768192881685
9.1106186954104;55.271441474718415
9.173450548482196;60.20578296525818
9.236282401553993;64.05695303969179
9.299114254625788;65.74713252449389
9.361946107697584;66.84736387458857
9.42477796076938;68.8253832035281
9.487609813841175;70.65749086824401
9.55044166691297;70.23385151446304
9.613273519984768;73.45094416763602
9.676105373056563;75.17536706295289
9.738937226128359;74.47395554436206
9.801769079200154;72.79605626272912
9.86460093227195;70.75928702718815
9.927432785343747;72.50892175132101
9.990264638415542;76.4681652348668
10.053096491487338;76.3181740445801
10.115928344559133;74.9717459691676
10.178760197630929;77.97653037901654
10.241592050702724;82.06035701128908
10.30442390377452;81.71975939002347
10.367255756846316;82.57688672209142
10.430087609918115;85.09088241389688
10.49291946298991;84.65055132411601
10.555751316061706;84.5950190610643
10.618583169133501;82.96673960228397
10.681415022205297;80.66007430475435
10.744246875277092;87.73248512957876
10.807078728348888;87.78905732050292
10.869910581420683;93.03772835189818
10.932742434492479;95.15283203389797
10.995574287564274;95.3525226974185
11.058406140636071;93.48540252843893
11.121237993707869;94.52959936182654
11.184069846779664;93.62292256530321
11.24690169985146;90.48112320189931
11.309733552923255;97.92757671263611
11.37256540599505;105.51584776010148
11.435397259066846;105.73237849807023
11.498229112138642;106.64216270907677
11.561060965210437;104.37177423752749
11.623892818282235;102.38919445544198
11.68672467135403;106.36276021858187
11.749556524425827;109.01571721073512
11.812388377497623;106.92208871172997
11.875220230569418;108.15931123606448
11.938052083641214;117.85230314970589
12.00088393671301;120.63564086837683
12.063715789784805;119.88316581707377
12.1265476428566;120.85379985632115
12.189379495928398;118.47571053769434
12.252211349000193;120.0892707185932
12.315043202071989;126.47621750544386
12.377875055143784;129.3494583165002
12.440706908215581;136.68568998657867
12.503538761287377;144.5346878721963
12.566370614359172;147.89378043186386
12.629202467430968;146.94105182571823
12.692034320502763;144.3614607323522
12.75486617357456;145.88425202362313
12.817698026646356;151.4176194222405
12.880529879718152;155.83066132055473
12.943361732789947;154.70267368104015
13.006193585861743;159.64776232636692
13.06902543893354;158.66343634471605
13.131857292005336;168.15316369052886
13.194689145077131;174.7375648003198
13.257520998148927;175.12052776042057
13.320352851220724;171.23726701574324
13.38318470429252;172.9849815419933
13.446016557364315;180.63495715512076
13.50884841043611;192.23937743526443
13.571680263507906;198.58728207272821
13.634512116579701;215.5695973487301
13.697343969651497;222.21764463175538
13.760175822723294;224.04431864341947
13.82300767579509;228.9033844350089
13.885839528866887;230.79898527881974
13.948671381938683;233.91871810259093
14.011503235010478;250.15765926367072
14.074335088082274;258.1163948773573
14.137166941154069;268.77751888037403
14.199998794225865;278.79249734815266
14.26283064729766;291.8672237943538
14.325662500369456;301.8793903929529
14.388494353441251;310.066173265834
14.45132620651305;326.9609122056344
14.514158059584846;344.59272910108905
14.576989912656641;352.7642371243239
14.639821765728437;378.380009904068
14.702653618800232;405.46749303575456
14.765485471872028;418.16569186876814
14.828317324943823;419.77378583214403
14.891149178015619;436.37697298189465
14.953981031087414;460.0743435491206
15.01681288415921;504.9680757079056
15.079644737231005;545.2151522049869
15.142476590302804;573.0827849765224
15.2053084433746;598.3984410340387
15.268140296446395;620.7760412569878
15.33097214951819;665.2405588517998
15.393804002589986;714.0371451336355
15.456635855661782;764.118156592821
15.519467708733577;824.5359372272676
15.582299561805373;904.3486946824715
15.645131414877168;959.5483274299714
15.707963267948964;1004.8999463905815
15.770795121020763;1137.6386950300032
15.833626974092558;1197.6190375645826
15.896458827164354;1317.7107120705678
15.95929068023615;1461.0432408044273
16.022122533307947;1588.2367924412151
16.084954386379742;1773.9517290753147
16.147786239451538;1928.1330805481919
16.210618092523333;2150.352371616272
16.27344994559513;2466.3653536189527
16.336281798666924;2884.3046730498436
16.39911365173872;3376.1019972026534
16.461945504810515;4047.7941051735347
16.524777357882314;4720.024029858642
16.58760921095411;5523.842602025717
16.650441064025905;6705.521804073774
16.7132729170977;7847.972158759689
16.776104770169496;9676.99323550758
16.838936623241292;12666.442961291807
16.901768476313087;17890.23839837745
16.964600329384883;28005.9590991047
17.02743218245668;45825.93273360662
17.090264035528477;83011.1063423578
17.153095888600273;180033.89249499788
