frequency;power spectrum
0.0;96648812.683
0.06283185307179587;67953177.56347157
0.12566370614359174;33980688.47354576
0.18849555921538758;16123465.921452047
0.25132741228718347;8235139.189735888
0.3141592653589793;4662171.229125469
0.37699111843077515;2838878.6295391074
0.43982297150257105;1950321.140496961
0.5026548245743669;1318407.0387892015
0.5654866776461628;903433.2028998495
0.6283185307179586;696237.7487904027
0.6911503837897545;574833.7016633434
0.7539822368615503;477618.7626660852
0.8168140899333463;438289.1958062907
0.8796459430051421;412197.2697455615
0.9424777960769378;365819.16562990623
1.0053096491487339;333291.72982104676
1.0681415022205298;286388.6863412188
1.1309733552923256;260742.25683914634
1.1938052083641213;241758.67541620106
1.2566370614359172;226821.09847721056
1.3194689145077132;205088.30326111167
1.382300767579509;191163.09404667484
1.4451326206513047;174630.18170039696
1.5079644737231006;155987.84379482138
1.5707963267948966;146386.58006094105
1.6336281798666925;135048.78788586747
1.6964600329384882;126550.1609501576
1.7592918860102842;121194.67255671756
1.8221237390820801;109544.40035446733
1.8849555921538756;107334.76267664421
1.9477874452256716;101711.11765919474
2.0106192982974678;98931.10767144624
2.0734511513692637;91259.7423201043
2.1362830044410597;81983.83440026022
2.199114857512855;77683.28167930405
2.261946710584651;72715.94845002276
2.324778563656447;69887.96672052602
2.3876104167282426;70999.40658581693
2.4504422698000385;70033.30303923361
2.5132741228718345;68184.20961404916
2.57610597594363;64808.1570238304
2.6389378290154264;62660.91251852376
2.701769682087222;59723.893200762526
2.764601535159018;59416.01828406466
2.827433388230814;52058.52627475887
2.8902652413026093;47529.07028036367
2.9530970943744057;48447.494749886326
3.015928947446201;49957.816138818474
3.078760800517997;47559.48751794431
3.141592653589793;44940.99022717755
3.204424506661589;42238.13421792086
3.267256359733385;38018.251442501154
3.330088212805181;39127.70930126685
3.3929200658769765;36786.05857685806
3.4557519189487724;38030.45550604923
3.5185837720205684;39882.91992197555
3.581415625092364;38118.75956583577
3.6442474781641603;37135.632004805615
3.707079331235956;36350.4279306351
3.7699111843077513;36669.259682122494
3.8327430373795477;34001.38079575914
3.895574890451343;30836.214119155386
3.9584067435231396;29061.302741367916
4.0212385965949355;29528.47075849408
4.084070449666731;28391.774598228527
4.1469023027385274;27835.09192165409
4.209734155810323;27063.000164409346
4.272566008882119;27574.588333013944
4.335397861953915;26761.860437296044
4.39822971502571;24802.23930565521
4.461061568097507;25108.512012671563
4.523893421169302;23870.009124853157
4.586725274241098;21865.869054338156
4.649557127312894;21890.88100120497
4.71238898038469;21328.721797582784
4.775220833456485;21610.942347997905
4.838052686528282;22146.91707228261
4.900884539600077;20733.617645272774
4.9637163926718735;21690.46021797012
5.026548245743669;21547.617193787446
5.0893800988154645;21189.460202788974
5.15221195188726;20349.815485869785
5.215043804959057;20349.51539704302
5.277875658030853;19984.252419093667
5.340707511102648;19726.28509871835
5.403539364174444;18790.788904933477
5.466371217246239;18503.970980977956
5.529203070318036;18312.79830885685
5.592034923389832;17645.542461483572
5.654866776461628;16894.81617409432
5.717698629533423;16467.919184977516
5.780530482605219;17376.73259466003
5.843362335677015;17277.604222787668
5.906194188748811;16503.347726809992
5.969026041820607;16286.696446324439
6.031857894892402;15497.558943403183
6.094689747964199;15557.633892786087
6.157521601035994;15781.64990607323
6.220353454107791;15351.397892379131
6.283185307179586;14648.974419224438
6.346017160251382;14838.386488834438
6.408849013323178;14880.301982589819
6.471680866394974;14355.708390363767
6.53451271946677;13921.816983771023
6.5973445725385655;12863.178091423026
6.660176425610362;12111.544462890313
6.7230082786821574;12357.880209748157
6.785840131753953;12428.033060906719
6.8486719848257485;12718.103295967132
6.911503837897545;11617.849176194297
6.974335690969341;11433.883615626497
7.037167544041137;10567.324698735822
7.099999397112932;10895.547672747938
7.162831250184728;10828.849248452007
7.225663103256525;11047.697768266211
7.288494956328321;11782.814994111444
7.351326809400116;12012.360407143375
7.414158662471912;11047.130432433314
7.476990515543707;10538.373853468092
7.539822368615503;10220.729032191806
7.6026542216873;10289.989860262627
7.665486074759095;10429.888350618052
7.728317927830891;11150.518789496542
7.791149780902686;11276.897009066703
7.853981633974482;10606.250118022188
7.916813487046279;9990.407212398035
7.979645340118075;9738.130964728409
8.042477193189871;9650.884710360284
8.105309046261667;9174.692856210833
8.168140899333462;9160.159277823377
8.230972752405258;9659.090199478078
8.293804605477055;9447.805987050238
8.35663645854885;8955.033963114733
8.419468311620646;8977.455519628751
8.482300164692441;9179.644848222011
8.545132017764239;9104.094194779398
8.607963870836034;8616.295735460604
8.67079572390783;8289.817145431392
8.733627576979625;8185.280533947226
8.79645943005142;8248.361258086146
8.859291283123216;8278.301922632218
8.922123136195014;7905.985807274939
8.984954989266809;7697.415584118951
9.047786842338605;8058.478025862926
9.1106186954104;7888.0859101594915
9.173450548482196;8213.837524316184
9.236282401553993;8249.817640475545
9.299114254625788;8272.04088482107
9.361946107697584;8193.207545327514
9.42477796076938;7578.356252097278
9.487609813841175;7103.455018506374
9.55044166691297;7412.239197470615
9.613273519984768;7210.02077033545
9.676105373056563;7212.663950101548
9.738937226128359;7291.91981545955
9.801769079200154;7264.706654108017
9.86460093227195;6551.516242453794
9.927432785343747;6209.656548956591
9.990264638415542;6228.025785573738
10.053096491487338;6526.3369631432815
10.115928344559133;6975.072159291671
10.178760197630929;7066.489417313761
10.241592050702724;6882.7592367706775
10.30442390377452;6865.622185044029
10.367255756846316;6426.312327876951
10.430087609918115;6540.055529286294
10.49291946298991;6535.4277351268465
10.555751316061706;6537.014814043813
10.618583169133501;6501.192081572506
10.681415022205297;6331.1101143287215
10.744246875277092;6213.161312930181
10.807078728348888;6125.946347735711
10.869910581420683;5925.578998289049
10.932742434492479;5940.270121745524
10.995574287564274;5852.525097254056
11.058406140636071;5981.482666546222
11.121237993707869;5587.435293712574
11.184069846779664;5603.474024254477
11.24690169985146;5754.011561272941
11.309733552923255;5861.00394916085
11.37256540599505;5822.517492821983
11.435397259066846;5815.040046917471
11.498229112138642;5526.446504025423
11.561060965210437;5600.704964233347
11.623892818282235;5707.334311233774
11.68672467135403;5723.030468606285
11.749556524425827;5512.5686782546945
11.812388377497623;5382.398797012862
11.875220230569418;5159.145322894946
11.938052083641214;4818.861369939638
12.00088393671301;4916.442538538453
12.063715789784805;4996.137813885442
12.1265476428566;5205.399365653605
12.189379495928398;5264.858531721995
12.252211349000193;4961.247402225928
12.315043202071989;5107.636019137886
12.377875055143784;5082.968980581319
12.440706908215581;4929.622759580868
12.503538761287377;4842.729067131728
12.566370614359172;4901.711882446041
12.629202467430968;4994.66371358491
12.692034320502763;5231.335094045717
12.75486617357456;5062.409629677906
12.817698026646356;4751.851054824582
12.880529879718152;4627.417384639187
12.943361732789947;4848.896758906685
13.006193585861743;4788.7595016698115
13.06902543893354;4607.465604175403
13.131857292005336;4527.437761697768
13.194689145077131;4440.905835391228
13.257520998148927;4531.851577915601
13.320352851220724;4557.459977487251
13.38318470429252;4429.667938678462
13.446016557364315;4516.926635042463
13.50884841043611;4619.904607536453
13.571680263507906;4574.189042252966
13.634512116579701;4401.712341644502
13.697343969651497;4373.075918491432
13.760175822723294;4393.882325239311
13.82300767579509;4257.849744420175
13.885839528866887;3850.7414178247827
13.948671381938683;3812.395220407963
14.011503235010478;3862.6597853170892
14.074335088082274;4078.2771535337347
14.137166941154069;3921.157870193729
14.199998794225865;4082.843
14.26283064729766;4211.504029600167
14.325662500369456;4145.361928399027
14.388494353441251;4257.592678563499
14.45132620651305;4277.708063971066
14.514158059584846;4013.929072396606
14.576989912656641;3957.8762534132193
14.639821765728437;3979.160923940257
14.702653618800232;3915.6955622678656
14.765485471872028;3824.812556659667
14.828317324943823;3905.1339423334543
14.891149178015619;4014.2873315915467
14.953981031087414;4254.24593070006
15.01681288415921;4120.637477143028
15.079644737231005;3763.363672205441
15.142476590302804;3768.9296007104417
15.2053084433746;3865.4226898049233
15.268140296446395;3804.260302832142
15.33097214951819;3703.5648630558
15.393804002589986;3663.7773599012658
15.456635855661782;3876.9231908545707
15.519467708733577;3964.4243492641226
15.582299561805373;4041.177285111858
15.645131414877168;3886.584920248571
15.707963267948964;3525.5541244128926
15.770795121020763;3220.61289142266
15.833626974092558;3217.7998661520996
15.896458827164354;3444.8876067878505
15.95929068023615;3392.107041128031
16.022122533307947;3229.5873424685747
16.084954386379742;3244.393128397304
16.147786239451538;3240.24222001741
16.210618092523333;3249.716767478752
16.27344994559513;3006.9620038615685
16.336281798666924;2973.804381422098
16.39911365173872;2916.03564771536
16.461945504810515;2878.413494056293
16.524777357882314;3061.0592280341257
16.58760921095411;3197.2296483489795
16.650441064025905;3169.2921507258848
16.7132729170977;3055.5084403171636
16.776104770169496;3051.1868199635164
16.838936623241292;3154.1101276818536
16.901768476313087;3230.6529163185887
16.964600329384883;3122.1325831292334
17.02743218245668;3118.5404858330894
17.090264035528477;3043.7715271471952
17.153095888600273;2997.0438141777076
17.21592774167207;3044.524899862265
17.278759594743864;3027.4315357254745
17.34159144781566;2983.857757605235
17.404423300887455;2892.807002299291
17.46725515395925;3023.951352498267
17.530087007031046;3042.8404938158837
17.59291886010284;3120.490983596769
17.655750713174637;2931.9665399209994
17.718582566246432;2913.881601235866
17.78141441931823;2778.8622724408374
17.844246272390027;2737.01621688021
17.907078125461823;2619.279652947682
17.969909978533618;2666.2983949963977
18.032741831605414;2731.5421135261645
18.09557368467721;2729.2859674764227
18.158405537749005;2683.339081484159
18.2212373908208;2611.659935376223
18.284069243892596;2632.954129509951
18.34690109696439;2569.731751338366
18.409732950036187;2705.424566675524
18.472564803107986;2745.6200336704737
18.53539665617978;2884.0311883165537
18.598228509251577;2885.2222137822237
18.661060362323372;2796.9575076514707
18.723892215395168;2676.859646979716
18.786724068466963;2520.8545200738763
18.84955592153876;2676.159748384294
18.912387774610554;2724.830971935893
18.97521962768235;2685.1722703647265
19.038051480754145;2670.506819379075
19.10088333382594;2629.907617856983
19.16371518689774;2647.892940649191
19.226547039969535;2543.6946869682797
19.28937889304133;2527.2082278401017
19.352210746113126;2567.5479452200407
19.415042599184922;2667.4948305190223
19.477874452256717;2714.848651083163
19.540706305328513;2596.844789512311
19.60353815840031;2594.068476828564
19.666370011472104;2432.7018384864564
19.7292018645439;2243.2195015060365
19.7920337176157;2430.7723247376775
19.854865570687494;2623.770477761464
19.91769742375929;2611.3675402040726
19.980529276831085;2455.530279480908
20.04336112990288;2480.144999911452
20.106192982974676;2612.130789178124
20.16902483604647;2554.3187180810087
20.231856689118267;2490.1343218392385
20.294688542190062;2409.9476101132486
20.357520395261858;2413.7333448356
20.420352248333653;2527.739471095354
20.48318410140545;2421.4300978928454
20.546015954477248;2427.528842895483
20.60884780754904;2380.6759366385477
20.67167966062084;2286.9337012697642
20.73451151369263;2244.6861874015867
20.79734336676443;2257.4966425390407
20.86017521983623;2199.577254143917
20.92300707290802;2198.46259389551
20.98583892597982;2115.588866535197
21.048670779051612;2162.1695302233034
21.11150263212341;2283.2461204376496
21.174334485195203;2420.260795314877
21.237166338267002;2351.9614434379614
21.299998191338794;2306.921
21.362830044410593;2138.5569084144736
21.425661897482385;1979.048384918112
21.488493750554184;2009.7821428381249
21.551325603625983;2062.6371275373335
21.614157456697775;2059.392759183177
21.676989309769574;2129.277888593664
21.739821162841366;2253.8581251448263
21.802653015913165;2250.306897958431
21.865484868984957;2189.861361785688
21.928316722056756;2304.405222808527
21.99114857512855;2277.0366994847177
22.053980428200347;2106.674866369317
22.116812281272143;2099.708913808577
22.17964413434394;2000.1439200789307
22.242475987415737;2026.7593161906088
22.30530784048753;2144.5394958164325
22.36813969355933;2186.1675878547385
22.43097154663112;2108.750862655898
22.49380339970292;2109.6641037813743
22.55663525277471;2144.5007275755347
22.61946710584651;2293.8284670437756
22.682298958918306;2118.683109906756
22.7451308119901;2092.384672622338
22.8079626650619;2199.6269372579754
22.870794518133692;2258.4870048960015
22.93362637120549;2179.1687790094784
22.996458224277283;2169.6950557789137
23.059290077349083;2278.725010964682
23.122121930420874;2271.942912880902
23.184953783492674;2216.446544202619
23.24778563656447;2107.4844939561262
23.310617489636265;2028.4955666814183
23.37344934270806;1987.5126398704426
23.436281195779856;1945.301497516724
23.499113048851655;1867.8871364143683
23.561944901923447;1786.9719205037818
23.624776754995246;1765.2813797400456
23.687608608067038;1816.8536685568204
23.750440461138837;1758.4489079497885
23.813272314210632;1794.6226731244099
23.876104167282428;1886.3020583847297
23.938936020354223;1827.4876173389655
24.00176787342602;1816.1005888384432
24.064599726497814;2045.0110980260245
24.12743157956961;2129.4848285008966
24.19026343264141;1966.3484602116127
24.2530952857132;1848.7158149896609
24.315927138785;1844.4615199669636
24.378758991856795;1893.231963910144
24.44159084492859;1820.4935176735944
24.504422698000386;1885.9819348917295
24.567254551072182;1935.545628136901
24.630086404143977;1989.4401185892189
24.692918257215773;1913.3994583853257
24.75575011028757;1871.0284639304803
24.818581963359364;1850.4992840212565
24.881413816431163;1811.392361621472
24.94424566950296;1839.4127290745937
25.007077522574754;1760.7883151979506
25.06990937564655;1734.261889795172
25.132741228718345;1727.2475462387304
25.19557308179014;1699.5667581857986
25.258404934861936;1754.6346176517518
25.32123678793373;1794.646301359607
25.384068641005527;1792.1884071700226
25.446900494077322;1768.9839794409422
25.50973234714912;1842.6202908936186
25.572564200220917;1857.1562046495067
25.635396053292713;1865.7647162943556
25.698227906364508;1842.794297359347
25.761059759436304;1802.1593203297743
25.8238916125081;1738.473085480803
25.886723465579895;1742.5803047779084
25.94955531865169;1683.6671386148978
26.012387171723486;1667.7467934209108
26.075219024795285;1597.3944976814023
26.13805087786708;1541.5926252028444
26.200882730938876;1577.4904398633457
26.26371458401067;1621.3718792667416
26.326546437082467;1680.0344202419212
26.389378290154262;1681.5368664962439
26.452210143226058;1677.490188313877
26.515041996297853;1696.1221642944174
26.57787384936965;1645.3126290781993
26.640705702441448;1582.2239605803973
26.70353755551324;1574.2295970925409
26.76636940858504;1641.390968277857
26.829201261656834;1699.007321147926
26.89203311472863;1699.374551225059
26.954864967800425;1688.814748529727
27.01769682087222;1641.3720207699353
27.080528673944016;1712.8627522921604
27.143360527015812;1617.4006694490988
27.20619238008761;1610.6635809591423
27.269024233159403;1696.4332612770922
27.331856086231202;1735.2338443061342
27.394687939302994;1657.348151637979
27.457519792374793;1642.2750620814536
27.52035164544659;1597.5654305975538
27.583183498518384;1640.1824425968325
27.64601535159018;1667.9201863759192
27.708847204661975;1668.9854201628102
27.771679057733774;1589.1706942501064
27.834510910805566;1563.2866315244464
27.897342763877365;1527.8179833623
27.960174616949157;1562.6156301073913
28.023006470020956;1577.9784876007748
28.085838323092748;1548.4405615061864
28.148670176164547;1506.5544648700115
28.211502029236343;1439.5341549286263
28.274333882308138;1489.0868669373579
28.337165735379937;1514.2429583196142
28.39999758845173;1544.209
28.462829441523528;1591.671084101355
28.52566129459532;1534.135154898365
28.58849314766712;1445.4992976479825
28.65132500073891;1401.3428813290323
28.71415685381071;1358.552367049207
28.776988706882502;1447.1049865546584
28.8398205599543;1555.045884760537
28.9026524130261;1498.1547268817224
28.965484266097892;1439.2198449977957
29.02831611916969;1381.1538310922679
29.091147972241483;1355.330413976544
29.153979825313282;1392.913925043341
29.216811678385074;1448.9874797004582
29.279643531456873;1432.1604272905286
29.342475384528665;1453.8382136159382
29.405307237600464;1497.2737811822117
29.468139090672256;1470.219992279018
29.530970943744055;1455.6520553631917
29.593802796815854;1487.8640740126677
29.656634649887646;1471.610761364218
29.719466502959445;1464.765670535808
29.782298356031237;1507.5657369096448
29.845130209103036;1497.070851294249
29.90796206217483;1400.01753730242
29.970793915246627;1388.3950409726249
30.03362576831842;1334.869721287087
30.09645762139022;1346.4772281123328
30.15928947446201;1323.4066449995041
30.22212132753381;1332.5369209436067
30.28495318060561;1339.1158613870991
30.3477850336774;1349.9072003216515
30.4106168867492;1392.558600083924
30.47344873982099;1351.2937563765058
30.53628059289279;1353.4960005445996
30.599112445964582;1314.1025783732787
30.66194429903638;1265.8799524098467
30.724776152108173;1255.734324872335
30.787608005179973;1241.0109297800568
30.85043985825177;1267.5684616796088
30.913271711323564;1342.0111491710986
30.976103564395363;1395.2563552142046
31.038935417467155;1407.4711434374678
31.101767270538954;1361.1293786215406
31.164599123610746;1307.8306334386539
31.227430976682545;1257.0694268452503
31.290262829754337;1169.0807001874448
31.353094682826136;1161.3523640291542
31.415926535897928;1191.0634457303152
31.478758388969727;1267.1878556776219
31.541590242041526;1214.5456205543685
31.604422095113318;1192.8385712643515
31.667253948185117;1217.6131473045673
31.73008580125691;1239.8933082843978
31.792917654328708;1224.8444849996479
31.8557495074005;1249.3020785334716
31.9185813604723;1289.134615104564
31.98141321354409;1237.5243163846806
32.04424506661589;1181.0434427215835
32.107076919687685;1115.0781594166033
32.169908772759484;1170.9138888825619
32.232740625831276;1234.1894245697736
32.295572478903075;1236.8340116313232
32.35840433197487;1268.2189792680585
32.421236185046666;1232.9529456503722
32.484068038118465;1142.078907471375
32.54689989119026;1146.2837165735964
32.60973174426206;1169.2327400439199
32.67256359733385;1172.621523203329
32.73539545040565;1173.1575632506979
32.79822730347744;1209.2339584172485
32.86105915654924;1209.8853691585557
32.92389100962103;1167.5046013129347
32.98672286269283;1214.6393193651065
33.04955471576463;1182.9907167916592
33.11238656883642;1177.8994166739756
33.17521842190822;1187.2683558181604
33.23805027498001;1242.0273311976684
33.30088212805181;1273.594167361511
33.3637139811236;1215.5050099653854
33.4265458341954;1216.9315708381553
33.48937768726719;1310.7600100456714
33.55220954033899;1300.8882788342055
33.61504139341079;1305.914843456755
33.677873246482584;1223.7599809797923
33.74070509955438;1200.1988247545655
33.803536952626175;1222.7819813811825
33.866368805697974;1165.7464730188099
33.929200658769766;1171.0143879243858
