frequency;power spectrum
0.0;77360615.145
0.06283185307179587;55319914.819109954
0.12566370614359174;27074288.91900075
0.18849555921538758;12502007.777871553
0.25132741228718347;6310120.331530754
0.3141592653589793;3514810.395953352
0.37699111843077515;2153343.0403124522
0.43982297150257105;1442237.6051134984
0.5026548245743669;1013879.1685757423
0.5654866776461628;768690.5353798665
0.6283185307179586;571673.2137893962
0.6911503837897545;462106.6923002946
0.7539822368615503;392191.266879552
0.8168140899333463;341581.4932075842
0.8796459430051421;302890.31588538445
0.9424777960769378;270591.488810212
1.0053096491487339;256700.61947721703
1.0681415022205298;230888.25787409945
1.1309733552923256;201732.41915415903
1.1938052083641213;184117.66046910634
1.2566370614359172;174508.32472435932
1.3194689145077132;156867.74026842427
1.382300767579509;147009.475237364
1.4451326206513047;134244.13682076044
1.5079644737231006;118945.78845516162
1.5707963267948966;113255.00086889285
1.6336281798666925;109663.79541284642
1.6964600329384882;103698.92675692985
1.7592918860102842;94678.7870711225
1.8221237390820801;88579.05243310261
1.8849555921538756;81279.2020982015
1.9477874452256716;74729.47923452132
2.0106192982974678;71697.08471078158
2.0734511513692637;72508.03974389598
2.1362830044410597;69633.68938314864
2.199114857512855;70255.7298221735
2.261946710584651;65500.865247051675
2.324778563656447;58610.43565331588
2.3876104167282426;56166.772352874395
2.4504422698000385;53203.770390929
2.5132741228718345;52753.31682812558
2.57610597594363;51879.105959842214
2.6389378290154264;50672.94254129188
2.701769682087222;46506.91082412005
2.764601535159018;41390.020669581354
2.827433388230814;38226.855415449216
2.8902652413026093;38325.57727937644
2.9530970943744057;39922.93326625561
3.015928947446201;39463.22791964269
3.078760800517997;36618.68613644066
3.141592653589793;35188.35521494784
3.204424506661589;35318.61581748715
3.267256359733385;33719.04916160106
3.330088212805181;34453.03627540358
3.3929200658769765;33939.40525869326
3.4557519189487724;31242.032409829728
3.5185837720205684;29624.868778702465
3.581415625092364;28331.684984098836
3.6442474781641603;28424.00972696068
3.707079331235956;29192.91405772613
3.7699111843077513;28553.026664712186
3.8327430373795477;27808.63356245888
3.895574890451343;25945.017111508212
3.9584067435231396;25201.149141896716
4.0212385965949355;23157.4266928745
4.084070449666731;22123.950522618215
4.1469023027385274;22266.68986082795
4.209734155810323;22499.863060424592
4.272566008882119;20671.431172145054
4.335397861953915;20391.143736217728
4.39822971502571;21503.333397496674
4.461061568097507;21834.55132452574
4.523893421169302;20627.989246679506
4.586725274241098;20461.468657312675
4.649557127312894;19339.353429598013
4.71238898038469;17902.624195843204
4.775220833456485;17414.815276947025
4.838052686528282;17353.725465850617
4.900884539600077;16931.00256700569
4.9637163926718735;16035.837930986812
5.026548245743669;16027.460397328483
5.0893800988154645;16374.178471436231
5.15221195188726;16626.30041236149
5.215043804959057;16633.24044470956
5.277875658030853;16800.192057423654
5.340707511102648;15530.690750969123
5.403539364174444;15182.399837273862
5.466371217246239;15619.085006917376
5.529203070318036;15394.774063433737
5.592034923389832;14875.336320462302
5.654866776461628;14623.470522707934
5.717698629533423;13703.857497555555
5.780530482605219;13752.180359873284
5.843362335677015;12993.018752061776
5.906194188748811;13568.109517730196
5.969026041820607;14516.459581267567
6.031857894892402;14593.692238568181
6.094689747964199;13357.590580921602
6.157521601035994;13466.74857008172
6.220353454107791;13277.262232638412
6.283185307179586;11722.327730675788
6.346017160251382;11900.369953909405
6.408849013323178;11947.757526951893
6.471680866394974;11376.286039983715
6.53451271946677;11469.75536994674
6.5973445725385655;10747.040324606169
6.660176425610362;10912.856004377141
6.7230082786821574;11550.870428342963
6.785840131753953;11279.823809253998
6.8486719848257485;10511.427762983727
6.911503837897545;10821.665096766388
6.974335690969341;10881.845725269322
7.037167544041137;10235.660645392738
7.099999397112932;9353.905331331824
7.162831250184728;8861.056127539145
7.225663103256525;9019.339102006898
7.288494956328321;8832.60311718535
7.351326809400116;8470.756957634901
7.414158662471912;8159.976342838894
7.476990515543707;8323.22015961254
7.539822368615503;8296.666203717814
7.6026542216873;8361.745081423347
7.665486074759095;8147.338567004624
7.728317927830891;8065.624626033136
7.791149780902686;8219.936904806515
7.853981633974482;8348.267280116275
7.916813487046279;8424.338889043125
7.979645340118075;8195.324157854253
8.042477193189871;7635.458845645369
8.105309046261667;7207.300424096723
8.168140899333462;7315.3907799896615
8.230972752405258;7360.612887439562
8.293804605477055;7412.051506609966
8.35663645854885;7486.701813892367
8.419468311620646;7158.909148632538
8.482300164692441;7329.746928134805
8.545132017764239;7313.539337976953
8.607963870836034;7041.072691634394
8.67079572390783;7025.750427679905
8.733627576979625;6852.17060496901
8.79645943005142;6602.394334903658
8.859291283123216;6766.9288036228145
8.922123136195014;6726.231315552754
8.984954989266809;6399.906280428182
9.047786842338605;6479.378824702324
9.1106186954104;6782.545707247667
9.173450548482196;6552.003375171787
9.236282401553993;6792.269976017813
9.299114254625788;6547.480894318986
9.361946107697584;6081.309093657335
9.42477796076938;5695.100614889295
9.487609813841175;5560.752029415249
9.55044166691297;5656.264611885355
9.613273519984768;6061.9241119936305
9.676105373056563;6354.56172045149
9.738937226128359;6420.7966661346845
9.801769079200154;6463.697349898529
9.86460093227195;6123.09094661591
9.927432785343747;5765.654803349896
9.990264638415542;5580.344435179029
10.053096491487338;5675.575860052791
10.115928344559133;5874.74770276676
10.178760197630929;5696.071947388238
10.241592050702724;5461.950968642892
10.30442390377452;5466.698058757012
10.367255756846316;5378.986977654108
10.430087609918115;5388.441003706228
10.49291946298991;5226.908286836521
10.555751316061706;5262.616832731733
10.618583169133501;5147.930501751393
10.681415022205297;5096.77181184728
10.744246875277092;4977.722754879553
10.807078728348888;4792.666086917522
10.869910581420683;4722.812706304057
10.932742434492479;4528.551901244762
10.995574287564274;4608.12510386664
11.058406140636071;4730.123959072297
11.121237993707869;4771.6143251199865
11.184069846779664;4646.892436723979
11.24690169985146;4374.653364559174
11.309733552923255;4363.89711199066
11.37256540599505;4298.912819060597
11.435397259066846;4514.901956332817
11.498229112138642;4452.059279993434
11.561060965210437;4362.10938693755
11.623892818282235;4281.779410996567
11.68672467135403;4513.056276235264
11.749556524425827;4374.145497856312
11.812388377497623;4012.0789762426043
11.875220230569418;4192.515900298324
11.938052083641214;4337.1290566614225
12.00088393671301;4341.0028081231585
12.063715789784805;4332.386821453662
12.1265476428566;4038.5108558266265
12.189379495928398;3978.5200703598816
12.252211349000193;3891.0895108217783
12.315043202071989;3892.374280038421
12.377875055143784;3883.159260739565
12.440706908215581;3798.0270026349217
12.503538761287377;3783.1430110728816
12.566370614359172;3903.827554914425
12.629202467430968;4080.086967127173
12.692034320502763;4116.181779230737
12.75486617357456;3969.4806054814385
12.817698026646356;3908.1913229339357
12.880529879718152;3939.965787719403
12.943361732789947;3672.282254261845
13.006193585861743;3673.1277124926646
13.06902543893354;3615.2094079768235
13.131857292005336;3610.662884659422
13.194689145077131;3670.998561509108
13.257520998148927;3745.7635319791666
13.320352851220724;3830.1632949985133
13.38318470429252;3809.7371057597234
13.446016557364315;3770.0416177304137
13.50884841043611;3613.6714037103943
13.571680263507906;3417.824120921062
13.634512116579701;3450.365262516513
13.697343969651497;3462.6178838330598
13.760175822723294;3499.635240450209
13.82300767579509;3440.8781363195235
13.885839528866887;3705.182870562251
13.948671381938683;3525.465633614178
14.011503235010478;3468.2600515336594
14.074335088082274;3682.5695690268853
14.137166941154069;3719.294588285457
14.199998794225865;3408.6582548052656
14.26283064729766;3207.5511745232047
14.325662500369456;3052.0307979949257
14.388494353441251;3075.843636542041
14.45132620651305;3259.176255334653
14.514158059584846;3294.1627071487897
14.576989912656641;3195.678463054477
14.639821765728437;3452.8506150510048
14.702653618800232;3245.4811362712035
14.765485471872028;3112.628869989458
14.828317324943823;3063.0350821843626
14.891149178015619;3066.3293302886036
14.953981031087414;3014.64772676957
15.01681288415921;2948.197569637832
15.079644737231005;2842.6184656791597
15.142476590302804;2843.825125783219
15.2053084433746;2949.500204365711
15.268140296446395;3103.672997239534
15.33097214951819;3191.5112671621237
15.393804002589986;3165.9690900498576
15.456635855661782;2928.677380252223
15.519467708733577;2831.336812577892
15.582299561805373;2931.991766541513
15.645131414877168;2766.2442796827995
15.707963267948964;2839.339664761787
15.770795121020763;2957.562420410551
15.833626974092558;3064.140032295046
15.896458827164354;3043.285903063458
15.95929068023615;2887.501803762915
16.022122533307947;2722.4073151465554
16.084954386379742;2676.6910019589636
16.147786239451538;2602.3354273466875
16.210618092523333;2850.648860365784
16.27344994559513;2953.7711223970896
16.336281798666924;2873.4831373810375
16.39911365173872;2858.8991460820366
16.461945504810515;2853.4428613234627
16.524777357882314;2668.7723852606327
16.58760921095411;2495.461964406663
16.650441064025905;2548.7631154924143
16.7132729170977;2432.979732779448
16.776104770169496;2489.512308489141
16.838936623241292;2435.026777051123
16.901768476313087;2266.11497554372
16.964600329384883;2335.9562936578463
17.02743218245668;2291.264454101185
17.090264035528477;2391.1588417135868
17.153095888600273;2358.669502868322
17.21592774167207;2382.04964250009
17.278759594743864;2440.054626513388
17.34159144781566;2435.87630739441
17.404423300887455;2499.9097517962628
17.46725515395925;2469.547205708747
17.530087007031046;2492.1895311809435
17.59291886010284;2620.9898400081474
17.655750713174637;2703.5268751273848
17.718582566246432;2568.2145828182947
17.78141441931823;2521.9012602906923
17.844246272390027;2469.5510759749145
17.907078125461823;2369.462076704964
17.969909978533618;2249.7982048111307
18.032741831605414;2209.200268698057
18.09557368467721;2223.7453268236686
18.158405537749005;2277.002071351303
18.2212373908208;2314.432150184225
18.284069243892596;2323.224884307851
18.34690109696439;2138.5052787167183
18.409732950036187;2190.5402081135976
18.472564803107986;2419.261502593953
18.53539665617978;2425.3034717307755
18.598228509251577;2366.6695901177986
18.661060362323372;2354.102267486842
18.723892215395168;2348.1817691801175
18.786724068466963;2374.1997271800824
18.84955592153876;2242.849936931974
18.912387774610554;2269.071219063117
18.97521962768235;2006.141446856472
19.038051480754145;1909.9640213975101
19.10088333382594;2149.009953090695
19.16371518689774;2181.9933324175354
19.226547039969535;2155.9705054057695
19.28937889304133;2098.3827701746923
19.352210746113126;2100.734908374133
19.415042599184922;2068.853608976593
19.477874452256717;2077.896849833096
19.540706305328513;2109.772773379998
19.60353815840031;2073.936875480346
19.666370011472104;2050.1380984126226
19.7292018645439;2174.491728676797
19.7920337176157;2125.8466714328506
19.854865570687494;2105.633643598677
19.91769742375929;2105.6732415838837
19.980529276831085;2067.3351711693576
20.04336112990288;2204.1218654983086
20.106192982974676;2179.0188005404343
20.16902483604647;2049.1667020015025
20.231856689118267;1930.3312386366656
20.294688542190062;1843.0089397497027
20.357520395261858;1831.8550882692166
20.420352248333653;1926.2242518284472
20.48318410140545;2064.231378944535
20.546015954477248;2117.0537566224016
20.60884780754904;1932.9825866798865
20.67167966062084;1800.791791983545
20.73451151369263;1708.805099296695
20.79734336676443;1719.9813742349916
20.86017521983623;1816.6580963235936
20.92300707290802;1760.9149123794343
20.98583892597982;1655.5222220595788
21.048670779051612;1713.1488667063486
21.11150263212341;1800.1473333718388
21.174334485195203;1798.1850115883858
21.237166338267002;1752.25522648912
21.299998191338794;1653.452935323463
21.362830044410593;1707.2989222149897
21.425661897482385;1798.7019922669479
21.488493750554184;1712.9301079235597
21.551325603625983;1791.5045806965093
21.614157456697775;1824.501832316829
21.676989309769574;1832.5544291447784
21.739821162841366;1674.974563839866
21.802653015913165;1672.3857761873794
21.865484868984957;1719.1333997415188
21.928316722056756;1611.63903755103
21.99114857512855;1557.1676248495842
22.053980428200347;1676.3198152957334
22.116812281272143;1629.211986059554
22.17964413434394;1597.8366875618829
22.242475987415737;1664.452279364273
22.30530784048753;1691.4975639200604
22.36813969355933;1782.8597873303559
22.43097154663112;1664.8560517933288
22.49380339970292;1616.1378878471953
22.55663525277471;1621.0146644829128
22.61946710584651;1647.01814203145
22.682298958918306;1714.1869321033084
22.7451308119901;1747.384355666359
22.8079626650619;1633.5479016611032
22.870794518133692;1642.560013410484
22.93362637120549;1623.3977478597274
22.996458224277283;1602.2367390828795
23.059290077349083;1632.9406167753289
23.122121930420874;1578.4752616270086
23.184953783492674;1586.1228715131858
23.24778563656447;1599.3216590777774
23.310617489636265;1708.0198639447563
23.37344934270806;1593.6062137849833
23.436281195779856;1555.0578864200013
23.499113048851655;1485.5651458151253
23.561944901923447;1498.8661481272986
23.624776754995246;1601.4192995077672
23.687608608067038;1591.6446925900996
23.750440461138837;1606.6281104707296
23.813272314210632;1543.1390626215882
23.876104167282428;1472.6451110249716
23.938936020354223;1450.453157126878
24.00176787342602;1426.5103838079883
24.064599726497814;1479.95922489436
24.12743157956961;1464.3456074108828
24.19026343264141;1490.529574440666
24.2530952857132;1457.2433744532646
24.315927138785;1399.1236432944288
24.378758991856795;1400.4387502774387
24.44159084492859;1478.5119259319501
24.504422698000386;1532.517223922731
24.567254551072182;1533.7230912434889
24.630086404143977;1526.6350511092533
24.692918257215773;1603.6109139627551
24.75575011028757;1523.056570172449
24.818581963359364;1424.6411062003438
24.881413816431163;1447.9686696757553
24.94424566950296;1553.9672782429432
25.007077522574754;1512.722343428346
25.06990937564655;1414.7615193159459
25.132741228718345;1475.5858794403744
25.19557308179014;1444.7513983596214
25.258404934861936;1518.4512503355904
25.32123678793373;1463.0987593075251
25.384068641005527;1353.6110780479692
25.446900494077322;1319.1337384415958
25.50973234714912;1423.3781692030966
25.572564200220917;1388.8976371343085
25.635396053292713;1496.0124382807521
25.698227906364508;1495.4383804775578
25.761059759436304;1403.7909219494315
25.8238916125081;1322.529949516923
25.886723465579895;1377.8291694978598
25.94955531865169;1418.9392359729704
26.012387171723486;1473.0792729378188
26.075219024795285;1521.805169900256
26.13805087786708;1406.00435806697
26.200882730938876;1336.6498825955423
26.26371458401067;1309.4165050736435
26.326546437082467;1263.9303648351276
26.389378290154262;1283.4213878558053
26.452210143226058;1364.7720095129923
26.515041996297853;1335.6508089774495
26.57787384936965;1258.0674021876384
26.640705702441448;1257.8282111952255
26.70353755551324;1300.9318306368348
26.76636940858504;1258.0968551490423
26.829201261656834;1273.2601778470362
26.89203311472863;1334.2307568468962
26.954864967800425;1314.412470248781
27.01769682087222;1335.2746452375895
27.080528673944016;1364.2578310048655
27.143360527015812;1342.8976861270742
27.20619238008761;1385.973295803758
27.269024233159403;1335.3661802878557
27.331856086231202;1339.835761774465
27.394687939302994;1268.0208542699863
27.457519792374793;1272.8249438204793
27.52035164544659;1343.1293320811124
27.583183498518384;1378.7693216442308
27.64601535159018;1301.392168947189
27.708847204661975;1229.0375709959192
27.771679057733774;1224.9873727834265
27.834510910805566;1203.0969565286232
27.897342763877365;1160.7792938904659
27.960174616949157;1078.0222222296945
28.023006470020956;1089.4915543438865
28.085838323092748;1162.1508944975244
28.148670176164547;1314.9273958872154
28.211502029236343;1275.029877860315
28.274333882308138;1261.319959107451
28.337165735379937;1231.4806031812757
28.39999758845173;1199.8236160645106
28.462829441523528;1220.3124530351754
28.52566129459532;1225.25739770525
28.58849314766712;1272.434485626201
28.65132500073891;1279.1634961714458
28.71415685381071;1265.054375929126
28.776988706882502;1304.1968837843351
28.8398205599543;1299.0004154246317
28.9026524130261;1276.2952425230726
28.965484266097892;1278.1624627387264
29.02831611916969;1279.158068743288
29.091147972241483;1303.8114987336237
29.153979825313282;1250.4855308963313
29.216811678385074;1217.6203938541425
29.279643531456873;1187.1090379543489
29.342475384528665;1135.101542335802
29.405307237600464;1160.3137645237246
29.468139090672256;1166.5586040057713
29.530970943744055;1200.7797226736236
29.593802796815854;1250.4117962808978
29.656634649887646;1261.6138283043595
29.719466502959445;1270.868321964637
29.782298356031237;1238.0895184321757
29.845130209103036;1242.0047331912463
29.90796206217483;1224.8068237071366
29.970793915246627;1106.9767439614918
30.03362576831842;1096.9095958272123
30.09645762139022;1095.5618744168785
30.15928947446201;1111.7999832998557
30.22212132753381;1150.6443292664055
30.28495318060561;1152.2533059190837
30.3477850336774;1146.8796502677644
30.4106168867492;1121.3212199101986
30.47344873982099;1040.3080589552392
30.53628059289279;1089.097509157231
30.599112445964582;1109.4508187792956
30.66194429903638;1136.8814632347883
30.724776152108173;1174.2913872394997
30.787608005179973;1089.309655765595
30.85043985825177;1035.611498437839
30.913271711323564;1018.343775299897
30.976103564395363;1016.9215808290959
31.038935417467155;1037.9530394373319
31.101767270538954;1090.195380475607
31.164599123610746;1103.9459829586804
31.227430976682545;1029.5239380542464
31.290262829754337;998.8417713081308
31.353094682826136;1041.1023001180672
31.415926535897928;955.1861738897027
31.478758388969727;953.3088939368399
31.541590242041526;1006.2526843782899
31.604422095113318;1055.4104629456456
31.667253948185117;1045.3148796992316
31.73008580125691;1064.4237527251503
31.792917654328708;1083.8420407436963
31.8557495074005;1058.830832448994
31.9185813604723;1012.9165758468075
31.98141321354409;986.0359439330009
32.04424506661589;1008.9713807114367
32.107076919687685;1008.2435474410626
32.169908772759484;1000.2018318079092
32.232740625831276;1041.0792539481129
32.295572478903075;1003.1263409783653
32.35840433197487;943.0161228380377
32.421236185046666;954.4353276121763
32.484068038118465;955.2065817983154
32.54689989119026;995.0710937156633
32.60973174426206;1053.1319596583191
32.67256359733385;974.1137531634935
32.73539545040565;1029.8348810611828
32.79822730347744;994.569376988231
32.86105915654924;964.7678640845445
32.92389100962103;983.9286414949323
32.98672286269283;999.3618743816047
33.04955471576463;952.707544863615
33.11238656883642;944.6271361660649
33.17521842190822;953.7105014353214
33.23805027498001;944.3949267965651
33.30088212805181;968.9560199960933
33.3637139811236;961.9682526263452
33.4265458341954;947.6694725161492
33.48937768726719;954.6916450716387
33.55220954033899;979.3564035488253
33.61504139341079;971.0005639685743
33.677873246482584;918.7156614007805
33.74070509955438;935.3600052560278
33.803536952626175;976.4511528044717
33.866368805697974;910.2932322090052
