frequency;power spectrum
0.0;118764909.345
0.06283185307179587;88032219.80383192
0.12566370614359174;46883988.91045935
0.18849555921538758;24055202.738466922
0.25132741228718347;12228357.118702127
0.3141592653589793;6610239.218752566
0.37699111843077515;4047277.958406445
0.43982297150257105;2734698.67188667
0.5026548245743669;2003028.4837669206
0.5654866776461628;1467703.682851418
0.6283185307179586;1122242.2081524252
0.6911503837897545;870898.0045923727
0.7539822368615503;765208.5768352273
0.8168140899333463;631755.6164162079
0.8796459430051421;541436.6811638805
0.9424777960769378;483255.7328767054
1.0053096491487339;431913.61460364045
1.0681415022205298;382620.820798169
1.1309733552923256;351707.31878438476
1.1938052083641213;308648.69865730364
1.2566370614359172;286892.9324977064
1.3194689145077132;267344.3335034821
1.382300767579509;246503.13656818404
1.4451326206513047;228810.28302617176
1.5079644737231006;206358.53807014236
1.5707963267948966;193604.07490788787
1.6336281798666925;180510.9119421985
1.6964600329384882;178627.43255284158
1.7592918860102842;170661.61657019626
1.8221237390820801;166226.05110072976
1.8849555921538756;154338.51033107805
1.9477874452256716;145618.62600141394
2.0106192982974678;134324.95006445027
2.0734511513692637;127187.89837270792
2.1362830044410597;126515.52103070248
2.199114857512855;125677.92514939963
2.261946710584651;122063.1305635177
2.324778563656447;112376.35157799139
2.3876104167282426;101475.31704304981
2.4504422698000385;92731.4143568083
2.5132741228718345;90844.79133895141
2.57610597594363;87940.14763289633
2.6389378290154264;83827.43320261547
2.701769682087222;82234.17230474719
2.764601535159018;79117.04526801404
2.827433388230814;78217.41280096857
2.8902652413026093;75964.40409966084
2.9530970943744057;70223.95707447985
3.015928947446201;67123.35793331108
3.078760800517997;64509.06609945478
3.141592653589793;60276.05513604933
3.204424506661589;56201.72348254286
3.267256359733385;53084.035318377115
3.330088212805181;53431.10508899434
3.3929200658769765;55585.64535458893
3.4557519189487724;57970.32775888151
3.5185837720205684;57450.2222711843
3.581415625092364;53538.38055123879
3.6442474781641603;50094.24426928975
3.707079331235956;47138.7441310772
3.7699111843077513;43999.92375650815
3.8327430373795477;42098.83789411056
3.895574890451343;40163.398642644606
3.9584067435231396;41249.46564457642
4.0212385965949355;42059.30045957831
4.084070449666731;41144.1736499903
4.1469023027385274;41097.81567493445
4.209734155810323;40401.42084096291
4.272566008882119;38926.315575297514
4.335397861953915;37041.1254641868
4.39822971502571;35360.78188020385
4.461061568097507;33740.81020872815
4.523893421169302;32600.934297812528
4.586725274241098;33680.109827168
4.649557127312894;34255.52181375583
4.71238898038469;33620.099292802
4.775220833456485;35079.31381801208
4.838052686528282;33221.11016151558
4.900884539600077;32015.831713008745
4.9637163926718735;30439.463072839517
5.026548245743669;27916.63608401021
5.0893800988154645;28445.25193781239
5.15221195188726;28894.30035868424
5.215043804959057;27839.493025423697
5.277875658030853;26682.782687577663
5.340707511102648;26749.43783311417
5.403539364174444;26074.960442070776
5.466371217246239;24671.041170665314
5.529203070318036;22992.971913129742
5.592034923389832;22749.01497166021
5.654866776461628;23995.64713165781
5.717698629533423;23938.790262179733
5.780530482605219;24606.439123387732
5.843362335677015;24030.990351228273
5.906194188748811;23546.47846293547
5.969026041820607;23946.712666297346
6.031857894892402;22761.917125796394
6.094689747964199;21885.878551490503
6.157521601035994;20775.242686355206
6.220353454107791;20601.268001671968
6.283185307179586;21313.17275943773
6.346017160251382;21134.58561793175
6.408849013323178;19566.55377453308
6.471680866394974;18503.088831708348
6.53451271946677;17343.57093715194
6.5973445725385655;17462.98384027254
6.660176425610362;17924.53375146638
6.7230082786821574;17758.05043295331
6.785840131753953;16982.990596162497
6.8486719848257485;17499.164316722665
6.911503837897545;18017.123787798653
6.974335690969341;17868.53311428389
7.037167544041137;18014.17337687485
7.099999397112932;16960.13359615338
7.162831250184728;16394.09693212544
7.225663103256525;15887.51388543331
7.288494956328321;16380.31555435406
7.351326809400116;16964.393666112854
7.414158662471912;17137.76429090639
7.476990515543707;16637.47628724051
7.539822368615503;15523.57549411482
7.6026542216873;14671.474054225071
7.665486074759095;14042.390177720657
7.728317927830891;14908.205197069405
7.791149780902686;14288.279151156348
7.853981633974482;13760.108923259102
7.916813487046279;14124.77504405859
7.979645340118075;14128.34036089456
8.042477193189871;14416.62042808906
8.105309046261667;14557.34027837161
8.168140899333462;13920.53936738206
8.230972752405258;13561.874184707869
8.293804605477055;13567.900585839956
8.35663645854885;12988.352641005262
8.419468311620646;13083.630783673298
8.482300164692441;12628.417938802853
8.545132017764239;11964.57514893378
8.607963870836034;11314.154033029226
8.67079572390783;11283.478336585222
8.733627576979625;11510.568535117234
8.79645943005142;11798.48389894453
8.859291283123216;11994.993699622015
8.922123136195014;11940.987100806133
8.984954989266809;12027.799658193528
9.047786842338605;11940.937770184923
9.1106186954104;11203.655935281671
9.173450548482196;10812.743485282634
9.236282401553993;10865.210504701958
9.299114254625788;10939.311715195756
9.361946107697584;10533.094376165016
9.42477796076938;10549.010287859886
9.487609813841175;10684.864562324157
9.55044166691297;10220.014017791746
9.613273519984768;9583.256498952926
9.676105373056563;9921.699290564811
9.738937226128359;10324.073153857706
9.801769079200154;10291.739122822084
9.86460093227195;10147.50294431579
9.927432785343747;9870.260259083889
9.990264638415542;9515.898710373303
10.053096491487338;9416.070299531391
10.115928344559133;8738.122648538654
10.178760197630929;9032.351298139518
10.241592050702724;8997.619152832032
10.30442390377452;8984.61498318065
10.367255756846316;9086.841013334935
10.430087609918115;8972.401524906592
10.49291946298991;8653.33969357172
10.555751316061706;8524.46675747271
10.618583169133501;9157.972271871167
10.681415022205297;8439.410147830038
10.744246875277092;8042.451939846659
10.807078728348888;7994.647997705217
10.869910581420683;7994.190227808657
10.932742434492479;7722.5305616576525
10.995574287564274;7795.077829423278
11.058406140636071;7666.740786880423
11.121237993707869;7547.12091869442
11.184069846779664;7426.934269163876
11.24690169985146;7391.317520358442
11.309733552923255;7415.159864942119
11.37256540599505;7703.711933099874
11.435397259066846;7898.70642970198
11.498229112138642;7762.039327208494
11.561060965210437;7317.702368955424
11.623892818282235;6792.732656685812
11.68672467135403;6939.41545178372
11.749556524425827;7349.809920379583
11.812388377497623;6805.8277865474565
11.875220230569418;6454.163942687099
11.938052083641214;6476.023433488154
12.00088393671301;6612.611302663869
12.063715789784805;6454.567479291842
12.1265476428566;6421.832777686066
12.189379495928398;6971.757392546739
12.252211349000193;7192.289724906932
12.315043202071989;7346.185429532241
12.377875055143784;7035.699202796812
12.440706908215581;6684.335093517033
12.503538761287377;6819.127258547621
12.566370614359172;6791.781066829183
12.629202467430968;6806.746575651655
12.692034320502763;6956.99527622327
12.75486617357456;6576.049596650825
12.817698026646356;6405.244773652708
12.880529879718152;6334.761259000245
12.943361732789947;6531.46275034827
13.006193585861743;6784.480334629813
13.06902543893354;6982.978212236302
13.131857292005336;6900.301466933794
13.194689145077131;6579.628738611933
13.257520998148927;6406.948334082465
13.320352851220724;6189.629880463541
13.38318470429252;6170.411217615873
13.446016557364315;6068.502986946886
13.50884841043611;6066.148075900283
13.571680263507906;5945.252069442131
13.634512116579701;5748.230860575192
13.697343969651497;5605.490110017568
13.760175822723294;5483.086571836773
13.82300767579509;5439.388872006699
13.885839528866887;5376.226457086351
13.948671381938683;5562.035153839258
14.011503235010478;5646.45125647147
14.074335088082274;5462.343252810491
14.137166941154069;5455.293178760514
14.199998794225865;5420.786797885979
14.26283064729766;5441.510934402317
14.325662500369456;5658.271616837834
14.388494353441251;5939.546519169828
14.45132620651305;5954.761863014246
14.514158059584846;5907.459373130168
14.576989912656641;5756.852525404171
14.639821765728437;5778.1281219834755
14.702653618800232;5590.7798887098925
14.765485471872028;5310.470827889944
14.828317324943823;5178.8434955317925
14.891149178015619;5037.310572576355
14.953981031087414;5111.971259229773
15.01681288415921;5265.886264922973
15.079644737231005;5251.914508178836
15.142476590302804;5423.658402307718
15.2053084433746;5478.213366751536
15.268140296446395;5190.055414368355
15.33097214951819;4938.7266820954555
15.393804002589986;4924.355267035606
15.456635855661782;4863.471367061103
15.519467708733577;4900.622615899025
15.582299561805373;4873.988827225004
15.645131414877168;4846.667025890017
15.707963267948964;4761.725211189483
15.770795121020763;4625.322410375932
15.833626974092558;4585.941884171068
15.896458827164354;4618.258064442504
15.95929068023615;4922.78305058863
16.022122533307947;4854.3373631056165
16.084954386379742;4858.323314797852
16.147786239451538;4518.520085667948
16.210618092523333;4432.436882443079
16.27344994559513;4450.970809320215
16.336281798666924;4352.148495389907
16.39911365173872;4214.771930626042
16.461945504810515;4403.54185768419
16.524777357882314;4529.558323180984
16.58760921095411;4564.6570345866985
16.650441064025905;4328.83362975095
16.7132729170977;4432.918577413716
16.776104770169496;4350.708710675877
16.838936623241292;4183.51112285065
16.901768476313087;4235.822102273834
16.964600329384883;4192.789644868226
17.02743218245668;4208.074710503055
17.090264035528477;4171.488425178219
17.153095888600273;4244.121130973993
17.21592774167207;4432.861998553248
17.278759594743864;4475.983172877501
17.34159144781566;4297.215152431009
17.404423300887455;4279.88343759135
17.46725515395925;4179.20817314414
17.530087007031046;4226.90204037642
17.59291886010284;4083.4506698762525
17.655750713174637;4124.5019895163905
17.718582566246432;4126.559322296477
17.78141441931823;4093.035403487375
17.844246272390027;4108.183828804575
17.907078125461823;3843.294842005053
17.969909978533618;3569.465673102538
18.032741831605414;3609.6504661500294
18.09557368467721;3888.4989770534507
18.158405537749005;4060.9739778979947
18.2212373908208;4022.462234438481
18.284069243892596;3815.3395100898197
18.34690109696439;3740.3189993442425
18.409732950036187;3786.7966186661642
18.472564803107986;3700.4231893740944
18.53539665617978;3675.0739183973383
18.598228509251577;3778.253182871962
18.661060362323372;3814.1232878278206
18.723892215395168;3907.1882967556808
18.786724068466963;3850.2929523095527
18.84955592153876;3840.8185019901784
18.912387774610554;3717.042330066239
18.97521962768235;3496.0707774904154
19.038051480754145;3521.263997439869
19.10088333382594;3473.2552695594595
19.16371518689774;3515.6113792785914
19.226547039969535;3722.6819298908713
19.28937889304133;3685.28918503656
19.352210746113126;3607.3715477436194
19.415042599184922;3606.7036107873614
19.477874452256717;3663.5529826285897
19.540706305328513;3672.0790963448053
19.60353815840031;3536.801719654365
19.666370011472104;3464.966140318232
19.7292018645439;3398.8357099702293
19.7920337176157;3511.897880200181
19.854865570687494;3517.368479757096
19.91769742375929;3531.120908710115
19.980529276831085;3413.0336892442374
20.04336112990288;3227.1694698622837
20.106192982974676;3277.807725185774
20.16902483604647;3317.1705775004993
20.231856689118267;3309.183457302318
20.294688542190062;3187.52173073626
20.357520395261858;3089.3153994746094
20.420352248333653;3115.984732026288
20.48318410140545;3211.384387036216
20.546015954477248;3261.1884162199426
20.60884780754904;3127.7763743609958
20.67167966062084;3219.3648121801816
20.73451151369263;3174.406194584927
20.79734336676443;3281.725364208461
20.86017521983623;3462.0048132070574
20.92300707290802;3321.1285246115567
20.98583892597982;3081.1181056147657
21.048670779051612;3077.6312778730953
21.11150263212341;3133.175579476646
21.174334485195203;3027.997229302019
21.237166338267002;3226.388899819697
21.299998191338794;3091.2845043042157
21.362830044410593;3178.1087663844332
21.425661897482385;3149.7406798685224
21.488493750554184;3015.5924403473405
21.551325603625983;2873.4332862175665
21.614157456697775;2915.8939609503377
21.676989309769574;2880.404811420365
21.739821162841366;2851.3992384834464
21.802653015913165;3016.333409983255
21.865484868984957;3056.9443086189826
21.928316722056756;2997.2829430288225
21.99114857512855;2874.8865892795116
22.053980428200347;2818.556442701288
22.116812281272143;2781.318571299902
22.17964413434394;2776.4282643007177
22.242475987415737;2738.7260488694146
22.30530784048753;2874.5313095156102
22.36813969355933;2923.5378744397344
22.43097154663112;3076.4488329166857
22.49380339970292;3217.0369181588917
22.55663525277471;3071.510148567558
22.61946710584651;2952.1677542866755
22.682298958918306;2877.2909150912465
22.7451308119901;2671.0142243277637
22.8079626650619;2605.5091849724563
22.870794518133692;2812.6114241764485
22.93362637120549;2803.1975853784393
22.996458224277283;2739.207476270485
23.059290077349083;2730.7067498070423
23.122121930420874;2812.992660935435
23.184953783492674;2789.794322661459
23.24778563656447;2660.499611435449
23.310617489636265;2609.68597486858
23.37344934270806;2656.835258193406
23.436281195779856;2869.238526827482
23.499113048851655;2999.1940614924956
23.561944901923447;2916.4719039455717
23.624776754995246;2763.6922520457933
23.687608608067038;2711.0312445882623
23.750440461138837;2627.083509064093
23.813272314210632;2646.147458822693
23.876104167282428;2769.945034264236
23.938936020354223;2771.1748794178343
24.00176787342602;2787.4210708817245
24.064599726497814;2735.529212287298
24.12743157956961;2602.902951006445
24.19026343264141;2709.4405608053607
24.2530952857132;2684.009842833384
24.315927138785;2524.5198650146326
24.378758991856795;2389.6600042240098
24.44159084492859;2285.586858941392
24.504422698000386;2364.1225004681
24.567254551072182;2617.7148650414533
24.630086404143977;2706.0054812371804
24.692918257215773;2594.2375959891724
24.75575011028757;2594.484110045966
24.818581963359364;2512.276944928749
24.881413816431163;2445.0674785191136
24.94424566950296;2496.4307555385312
25.007077522574754;2565.603882314495
25.06990937564655;2603.3469640417
25.132741228718345;2350.867664702729
25.19557308179014;2350.66646656957
25.258404934861936;2524.6405645090986
25.32123678793373;2582.0933210815365
25.384068641005527;2492.952807856742
25.446900494077322;2493.033234019548
25.50973234714912;2523.2132638228254
25.572564200220917;2597.5943826288985
25.635396053292713;2632.107406496616
25.698227906364508;2523.0061464488012
25.761059759436304;2404.6235691650404
25.8238916125081;2311.163446360287
25.886723465579895;2318.9143892459806
25.94955531865169;2256.5065387328555
26.012387171723486;2264.681687337173
26.075219024795285;2311.036372111122
26.13805087786708;2414.71506409908
26.200882730938876;2372.59909973537
26.26371458401067;2294.8829785503526
26.326546437082467;2315.200209020969
26.389378290154262;2316.8033926183116
26.452210143226058;2308.8809262212467
26.515041996297853;2246.76522703609
26.57787384936965;2358.5608184924104
26.640705702441448;2489.90693444074
26.70353755551324;2543.468814919523
26.76636940858504;2511.082223900653
26.829201261656834;2353.382627937767
26.89203311472863;2295.741000156666
26.954864967800425;2254.782252058669
27.01769682087222;2263.122257404346
27.080528673944016;2281.201523874427
27.143360527015812;2221.4364538621066
27.20619238008761;2129.977503856788
27.269024233159403;2177.5161592071368
27.331856086231202;2221.0173881316273
27.394687939302994;2246.969127593349
27.457519792374793;2227.5306845355035
27.52035164544659;2136.0419283050546
27.583183498518384;2018.7787389339678
27.64601535159018;2093.355290811799
27.708847204661975;2137.4268386746185
27.771679057733774;2147.6690868196993
27.834510910805566;2164.1622747787596
27.897342763877365;2049.2216460965496
27.960174616949157;2001.2169136693517
28.023006470020956;2043.3847257022353
28.085838323092748;2042.2412343447645
28.148670176164547;2066.832355843313
28.211502029236343;2085.5265006273485
28.274333882308138;2161.087399019227
28.337165735379937;2151.1340250204657
28.39999758845173;2170.5352574735925
28.462829441523528;2074.6313223319385
28.52566129459532;2083.5077980236315
28.58849314766712;2120.7739202066236
28.65132500073891;2142.655617704287
28.71415685381071;2039.7928568038303
28.776988706882502;2022.3064407479017
28.8398205599543;1981.5351518075852
28.9026524130261;1959.0264069914358
28.965484266097892;1986.2881994001336
29.02831611916969;2052.4386866454747
29.091147972241483;2067.5339479561417
29.153979825313282;1929.8647495860387
29.216811678385074;1922.2184769188364
29.279643531456873;1999.1634315398903
29.342475384528665;1992.0580006120395
29.405307237600464;1967.0772505894656
29.468139090672256;1934.6366217767752
29.530970943744055;1938.6135411124067
29.593802796815854;1958.2977553082171
29.656634649887646;1924.3955078315928
29.719466502959445;1950.1429296573945
29.782298356031237;1953.1010575408573
29.845130209103036;1965.1519731856035
29.90796206217483;1891.8847093222512
29.970793915246627;1954.3147822459355
30.03362576831842;2015.1631208635579
30.09645762139022;2061.232104714433
30.15928947446201;1997.21823203662
30.22212132753381;2048.6989548872307
30.28495318060561;2041.1101904864931
30.3477850336774;1946.0413367029987
30.4106168867492;1912.9042409771635
30.47344873982099;1922.4963346343704
30.53628059289279;1860.0216445912838
30.599112445964582;1824.6297548884838
30.66194429903638;1768.035741024329
30.724776152108173;1760.6477991840957
30.787608005179973;1828.128824204878
30.85043985825177;1925.6167017356127
30.913271711323564;1937.2339720386285
30.976103564395363;2015.7921923921829
31.038935417467155;2066.497488471762
31.101767270538954;1848.8211939634239
31.164599123610746;1756.398195559182
31.227430976682545;1756.519723184343
31.290262829754337;1759.6346897666815
31.353094682826136;1701.9437845633504
31.415926535897928;1761.2849433970216
31.478758388969727;1757.0312730353744
31.541590242041526;1767.2412534621337
31.604422095113318;1746.121117584714
31.667253948185117;1712.0879303159752
31.73008580125691;1770.2899130003318
31.792917654328708;1865.1289321077375
31.8557495074005;1884.56030226361
31.9185813604723;1884.4226654063086
31.98141321354409;1826.0492529198568
32.04424506661589;1716.0340179820594
32.107076919687685;1613.5241854036988
32.169908772759484;1595.0911598124421
32.232740625831276;1678.832679505393
32.295572478903075;1605.1709881562922
32.35840433197487;1671.7656796901606
32.421236185046666;1708.290762316216
32.484068038118465;1703.9192935559809
32.54689989119026;1776.2434879237985
32.60973174426206;1853.2781169945972
32.67256359733385;1812.0749354527625
32.73539545040565;1721.2929050619434
32.79822730347744;1622.0939132674894
32.86105915654924;1587.5469637498509
32.92389100962103;1634.3983197846087
32.98672286269283;1626.9679765284354
33.04955471576463;1485.93787007976
33.11238656883642;1553.4043212379465
33.17521842190822;1600.04663257951
33.23805027498001;1606.2594803894358
33.30088212805181;1618.62680518055
33.3637139811236;1681.9656383463234
33.4265458341954;1619.9842719829005
33.48937768726719;1637.4802145933375
33.55220954033899;1729.410522968965
33.61504139341079;1691.0121573164852
33.677873246482584;1614.4895522244562
33.74070509955438;1592.745174699063
33.803536952626175;1600.6745902580549
33.866368805697974;1574.3821844292459
33.929200658769766;1535.4983425666721
33.992032511841565;1510.467938932936
