frequency;power spectrum
0.0;73356322.469
0.06283185307179587;50425401.370719224
0.12566370614359174;23744932.9911662
0.18849555921538758;10389535.416891124
0.25132741228718347;5029964.699458344
0.3141592653589793;2870628.0351047013
0.37699111843077515;1852355.8136978166
0.43982297150257105;1186917.6404524287
0.5026548245743669;834576.6229213647
0.5654866776461628;645585.7816509035
0.6283185307179586;490445.46002952603
0.6911503837897545;420539.8602488002
0.7539822368615503;363316.2446627923
0.8168140899333463;320859.4281143357
0.8796459430051421;267424.15093964606
0.9424777960769378;229198.5752298232
1.0053096491487339;201983.57235869038
1.0681415022205298;189833.8352125394
1.1309733552923256;174737.0270352083
1.1938052083641213;155985.26079671606
1.2566370614359172;133297.90307542277
1.3194689145077132;118111.86902390896
1.382300767579509;109977.68053779208
1.4451326206513047;105365.92921393778
1.5079644737231006;101019.64396817648
1.5707963267948966;100085.05308043907
1.6336281798666925;96964.13577113897
1.6964600329384882;87832.0029711004
1.7592918860102842;82606.76683114683
1.8221237390820801;76674.67347207422
1.8849555921538756;70752.13497132824
1.9477874452256716;67156.7966648078
2.0106192982974678;69275.89305686447
2.0734511513692637;65869.10342406062
2.1362830044410597;61814.45270883941
2.199114857512855;56680.78184390241
2.261946710584651;53336.62467647967
2.324778563656447;54816.85290438144
2.3876104167282426;50427.5191354907
2.4504422698000385;46230.35898316283
2.5132741228718345;45409.47638870954
2.57610597594363;44061.57907926252
2.6389378290154264;39550.91836863613
2.701769682087222;38060.25668709726
2.764601535159018;38593.026588376066
2.827433388230814;37120.82680897656
2.8902652413026093;35766.949171387525
2.9530970943744057;35401.31426243769
3.015928947446201;35819.7259582202
3.078760800517997;33501.037309309824
3.141592653589793;32451.40345198831
3.204424506661589;30110.088450591447
3.267256359733385;28600.315967609902
3.330088212805181;27000.079816266385
3.3929200658769765;27214.713866938404
3.4557519189487724;27107.681560711244
3.5185837720205684;26160.44318333091
3.581415625092364;24992.671391825636
3.6442474781641603;24186.28568045158
3.707079331235956;23244.117870377708
3.7699111843077513;23048.641369517845
3.8327430373795477;22113.632910932894
3.895574890451343;21137.87914251029
3.9584067435231396;21785.504755414735
4.0212385965949355;23243.464779459053
4.084070449666731;22118.441484138224
4.1469023027385274;21214.52270623237
4.209734155810323;18696.2897186001
4.272566008882119;18391.45895001751
4.335397861953915;17851.678202250554
4.39822971502571;16352.415949693046
4.461061568097507;16263.839178798899
4.523893421169302;16172.341738105904
4.586725274241098;16209.89503775857
4.649557127312894;16865.975341724017
4.71238898038469;17242.12901357774
4.775220833456485;16774.088552773494
4.838052686528282;16008.432010179537
4.900884539600077;14752.352383796237
4.9637163926718735;14726.430593591269
5.026548245743669;14257.202270558042
5.0893800988154645;14087.95353676122
5.15221195188726;14254.131366299735
5.215043804959057;14907.721093816786
5.277875658030853;14145.248602013224
5.340707511102648;13958.269007967809
5.403539364174444;14608.508353908079
5.466371217246239;15020.963511291506
5.529203070318036;15016.102301523199
5.592034923389832;15050.49632369246
5.654866776461628;14122.178706715478
5.717698629533423;13604.741423965175
5.780530482605219;11580.343147351341
5.843362335677015;11042.836881967947
5.906194188748811;11296.841789896684
5.969026041820607;11381.536949673115
6.031857894892402;10707.182218892527
6.094689747964199;10759.317633815408
6.157521601035994;10029.256352356771
6.220353454107791;9713.245816613711
6.283185307179586;9227.591527319522
6.346017160251382;8896.881088011227
6.408849013323178;9209.719043783178
6.471680866394974;9390.459194040011
6.53451271946677;9209.681002954136
6.5973445725385655;9240.593769187395
6.660176425610362;8865.306078317486
6.7230082786821574;8495.713868964478
6.785840131753953;8082.104660593076
6.8486719848257485;8251.22424627207
6.911503837897545;8369.421449187477
6.974335690969341;8246.09879118691
7.037167544041137;7926.455669761863
7.099999397112932;7952.825168210246
7.162831250184728;8068.47646914815
7.225663103256525;8120.043681235862
7.288494956328321;7793.518666316863
7.351326809400116;7482.638574822792
7.414158662471912;7486.4554867655015
7.476990515543707;7747.586224500076
7.539822368615503;7741.203667620914
7.6026542216873;7080.0537680584775
7.665486074759095;6593.309821625605
7.728317927830891;6817.415310453917
7.791149780902686;6579.267805967534
7.853981633974482;6446.561928822213
7.916813487046279;6956.93602992463
7.979645340118075;7051.207782498131
8.042477193189871;7431.234221591363
8.105309046261667;7205.529095328868
8.168140899333462;6975.49815409166
8.230972752405258;6983.614467624528
8.293804605477055;6875.66129197601
8.35663645854885;7176.714746767463
8.419468311620646;6871.21723032371
8.482300164692441;6192.31427481068
8.545132017764239;6358.493765929582
8.607963870836034;6226.953817597839
8.67079572390783;6498.623340652698
8.733627576979625;6257.196882299354
8.79645943005142;6377.992458309452
8.859291283123216;6276.976984423625
8.922123136195014;5913.076457966491
8.984954989266809;5677.18518421594
9.047786842338605;5376.6354072528875
9.1106186954104;5577.290776789197
9.173450548482196;5472.129434232884
9.236282401553993;5833.72015923237
9.299114254625788;5505.694106258126
9.361946107697584;5506.383900293066
9.42477796076938;5632.2349458700955
9.487609813841175;5461.360654315433
9.55044166691297;5091.83535022843
9.613273519984768;5033.496866389062
9.676105373056563;5005.818432296789
9.738937226128359;4919.803396016564
9.801769079200154;5197.597594655923
9.86460093227195;5190.8801145480265
9.927432785343747;5172.707805601129
9.990264638415542;5114.165626594169
10.053096491487338;5329.0298460935655
10.115928344559133;4973.912451665709
10.178760197630929;4733.520344269225
10.241592050702724;4791.855921202556
10.30442390377452;4752.210080399528
10.367255756846316;4645.207778544057
10.430087609918115;4490.875359641046
10.49291946298991;4657.984472186708
10.555751316061706;4743.492047104486
10.618583169133501;4789.847690784193
10.681415022205297;4735.631081616988
10.744246875277092;4578.654015610824
10.807078728348888;4444.075071945556
10.869910581420683;4143.765258898553
10.932742434492479;4165.6973445995845
10.995574287564274;4159.214390557233
11.058406140636071;3995.574175365557
11.121237993707869;3652.882560026499
11.184069846779664;3913.7255945655247
11.24690169985146;4000.914937098391
11.309733552923255;4234.693307571384
11.37256540599505;4139.422570279173
11.435397259066846;4122.549210928413
11.498229112138642;4226.782423680924
11.561060965210437;4022.909191546122
11.623892818282235;3666.263064814789
11.68672467135403;3628.83967003696
11.749556524425827;3849.093910677749
11.812388377497623;4058.4851259243105
11.875220230569418;4305.396348533103
11.938052083641214;4085.01124727578
12.00088393671301;3944.826535557703
12.063715789784805;3550.1431490453956
12.1265476428566;3474.5076906728455
12.189379495928398;3401.996438036797
12.252211349000193;3288.24070927155
12.315043202071989;3289.732218035671
12.377875055143784;3417.9223075603695
12.440706908215581;3502.6208101368693
12.503538761287377;3536.8092942439075
12.566370614359172;3482.3904416602877
12.629202467430968;3669.7819785086263
12.692034320502763;3416.14888998726
12.75486617357456;3315.304081722488
12.817698026646356;3274.884208431547
12.880529879718152;3410.012199427229
12.943361732789947;3430.8399186301467
13.006193585861743;3285.3058968098862
13.06902543893354;3203.284608710267
13.131857292005336;3021.061972903002
13.194689145077131;2987.968745481684
13.257520998148927;2930.587464229808
13.320352851220724;3013.6663684827167
13.38318470429252;3164.6636129239714
13.446016557364315;3141.3062972801104
13.50884841043611;3147.8193085545013
13.571680263507906;3068.3622183823286
13.634512116579701;2898.438664392993
13.697343969651497;2935.674372551124
13.760175822723294;3099.6429652179972
13.82300767579509;2967.9907801040795
13.885839528866887;2881.1142453884404
13.948671381938683;2982.830396216617
14.011503235010478;3048.247039702414
14.074335088082274;3116.3094791257063
14.137166941154069;3054.9922518988687
14.199998794225865;2927.0823018746264
14.26283064729766;2902.6332257942254
14.325662500369456;2797.868617455755
14.388494353441251;2808.069069947963
14.45132620651305;3022.908171530132
14.514158059584846;2955.6395876895326
14.576989912656641;2717.535714900904
14.639821765728437;2561.48913416045
14.702653618800232;2650.942734807477
14.765485471872028;2852.9351324799954
14.828317324943823;2843.6429497086583
14.891149178015619;2671.4338566067495
14.953981031087414;2759.3463059000564
15.01681288415921;2797.7916683631834
15.079644737231005;2793.172838235369
15.142476590302804;2564.904741015655
15.2053084433746;2474.9350050663516
15.268140296446395;2681.407991157056
15.33097214951819;2715.401831711988
15.393804002589986;2401.6660740097263
15.456635855661782;2268.1980031904427
15.519467708733577;2386.321593390396
15.582299561805373;2542.246978438181
15.645131414877168;2628.4341187577493
15.707963267948964;2661.8204096688996
15.770795121020763;2699.559013780413
15.833626974092558;2590.9751223866224
15.896458827164354;2489.9693426644617
15.95929068023615;2426.9001274712077
16.022122533307947;2485.675364105053
16.084954386379742;2481.218946098609
16.147786239451538;2405.118770621203
16.210618092523333;2364.928586914601
16.27344994559513;2357.6677418333293
16.336281798666924;2389.7149292637055
16.39911365173872;2355.617388531696
16.461945504810515;2368.1896646168507
16.524777357882314;2328.8733046470315
16.58760921095411;2411.131671530439
16.650441064025905;2358.8420620730053
16.7132729170977;2173.582577260387
16.776104770169496;2110.6889316447787
16.838936623241292;2239.867980527088
16.901768476313087;2328.6243457760975
16.964600329384883;2328.0137108067097
17.02743218245668;2223.0614920447833
17.090264035528477;2248.930299701341
17.153095888600273;2203.893563282234
17.21592774167207;2147.8463369048095
17.278759594743864;1981.4686068133153
17.34159144781566;1939.5706052584837
17.404423300887455;2080.445037449968
17.46725515395925;2241.5644204231508
17.530087007031046;2301.263078395185
17.59291886010284;2276.4952506238697
17.655750713174637;2282.581177897104
17.718582566246432;2372.00839936317
17.78141441931823;2401.395685845081
17.844246272390027;2284.565915061743
17.907078125461823;2143.181261859078
17.969909978533618;1980.4377412120791
18.032741831605414;2058.9879868945895
18.09557368467721;2059.0328657809982
18.158405537749005;1851.1421797577889
18.2212373908208;1823.843429437572
18.284069243892596;1980.7763430671487
18.34690109696439;1992.5718077917088
18.409732950036187;2041.5252923712285
18.472564803107986;2061.255920335021
18.53539665617978;2066.7153918130516
18.598228509251577;1954.2101030029512
18.661060362323372;1919.1010112357703
18.723892215395168;1867.929421031271
18.786724068466963;1902.0511497275927
18.84955592153876;1964.7545950954461
18.912387774610554;1962.661
18.97521962768235;1915.3273107674793
19.038051480754145;1963.9710899381244
19.10088333382594;1917.7515663416882
19.16371518689774;1971.7126215947774
19.226547039969535;1816.4749669191308
19.28937889304133;1760.3146706488615
19.352210746113126;1701.2062943941523
19.415042599184922;1586.0425719679035
19.477874452256717;1626.4343082559838
19.540706305328513;1681.4460472896358
19.60353815840031;1731.996476086535
19.666370011472104;1811.079949480792
19.7292018645439;1882.671171429765
19.7920337176157;1842.3296206938194
19.854865570687494;1755.115688302359
19.91769742375929;1820.201854277297
19.980529276831085;1876.0396839138762
20.04336112990288;1895.2805072449867
20.106192982974676;1661.5739433070282
20.16902483604647;1528.0326853708993
20.231856689118267;1672.272032386854
20.294688542190062;1702.449866812565
20.357520395261858;1662.3167857933875
20.420352248333653;1606.4744079246236
20.48318410140545;1679.9252939833593
20.546015954477248;1705.9461313350796
20.60884780754904;1655.2147824257852
20.67167966062084;1670.04687119956
20.73451151369263;1610.0961302033377
20.79734336676443;1567.8801074899816
20.86017521983623;1580.2635569822107
20.92300707290802;1638.0462520155374
20.98583892597982;1629.4917800999274
21.048670779051612;1657.7333903643766
21.11150263212341;1656.7160403103649
21.174334485195203;1613.8713034059338
21.237166338267002;1537.5093942514945
21.299998191338794;1476.0521788414512
21.362830044410593;1460.462690010494
21.425661897482385;1478.1768951263823
21.488493750554184;1613.4215195065967
21.551325603625983;1634.225789054533
21.614157456697775;1644.7508043154016
21.676989309769574;1622.0310308153437
21.739821162841366;1529.701244933376
21.802653015913165;1463.4512724053197
21.865484868984957;1353.9713069600507
21.928316722056756;1357.5238899674282
21.99114857512855;1448.7128576684274
22.053980428200347;1502.044667076038
22.116812281272143;1595.1132435865952
22.17964413434394;1575.3557741003756
22.242475987415737;1536.8707550013337
22.30530784048753;1572.3431721943664
22.36813969355933;1625.4345593215796
22.43097154663112;1630.3270197208478
22.49380339970292;1478.7243147503623
22.55663525277471;1470.1817404005044
22.61946710584651;1539.5498875657117
22.682298958918306;1507.2387747622035
22.7451308119901;1497.8857550965254
22.8079626650619;1582.2134545201516
22.870794518133692;1457.1925327358513
22.93362637120549;1367.137199033024
22.996458224277283;1385.2565792038681
23.059290077349083;1444.3075916859416
23.122121930420874;1415.090576369282
23.184953783492674;1403.9608839941477
23.24778563656447;1377.9765195384607
23.310617489636265;1388.4265278587368
23.37344934270806;1384.4090344839465
23.436281195779856;1340.2471701346597
23.499113048851655;1431.5957613902285
23.561944901923447;1380.2670887499355
23.624776754995246;1344.3963349354653
23.687608608067038;1342.6985563428066
23.750440461138837;1346.504723953801
23.813272314210632;1346.4907528174297
23.876104167282428;1302.4276491670166
23.938936020354223;1276.6776107595617
24.00176787342602;1214.7348592544627
24.064599726497814;1254.0315932202675
24.12743157956961;1301.2721590078818
24.19026343264141;1296.1628420364923
24.2530952857132;1233.1048680787683
24.315927138785;1205.2851764240943
24.378758991856795;1233.9908007820263
24.44159084492859;1269.956979885468
24.504422698000386;1261.523186879402
24.567254551072182;1303.3156303632354
24.630086404143977;1401.282457889303
24.692918257215773;1450.4547070698966
24.75575011028757;1464.347062342667
24.818581963359364;1362.94846540401
24.881413816431163;1289.2590151958568
24.94424566950296;1298.428437677281
25.007077522574754;1284.4822821448493
25.06990937564655;1227.496060892515
25.132741228718345;1301.4550039982792
25.19557308179014;1373.0864853370106
25.258404934861936;1279.480104312412
25.32123678793373;1232.991776236581
25.384068641005527;1257.5680895188455
25.446900494077322;1259.1970041381403
25.50973234714912;1257.252748633261
25.572564200220917;1144.2807001340643
25.635396053292713;1088.4026186438916
25.698227906364508;1054.3520386709042
25.761059759436304;1135.0900920082092
25.8238916125081;1216.5801742919216
25.886723465579895;1235.1419180455823
25.94955531865169;1143.2348037079794
26.012387171723486;1217.031619984041
26.075219024795285;1223.5312483043117
26.13805087786708;1256.162200432384
26.200882730938876;1256.2333044079485
26.26371458401067;1232.8564117692915
26.326546437082467;1277.1029511053332
26.389378290154262;1207.7401794081256
26.452210143226058;1197.3862583103867
26.515041996297853;1164.1680701685425
26.57787384936965;1207.6185914351624
26.640705702441448;1214.407868042088
26.70353755551324;1135.593663465212
26.76636940858504;1079.2150524363392
26.829201261656834;1119.7835035293642
26.89203311472863;1089.2505417972723
26.954864967800425;1047.6464781486234
27.01769682087222;1068.443059177328
27.080528673944016;1139.0543944990552
27.143360527015812;1159.1413087953317
27.20619238008761;1220.968675636568
27.269024233159403;1177.5093901306832
27.331856086231202;1109.0689313740231
27.394687939302994;1184.94140465196
27.457519792374793;1217.0717921043777
27.52035164544659;1175.2548537916844
27.583183498518384;1124.3438976150521
27.64601535159018;1144.4202408895642
27.708847204661975;1213.2146748470661
27.771679057733774;1216.6039122765076
27.834510910805566;1233.0807679344105
27.897342763877365;1181.8101385612604
27.960174616949157;1077.9935811666558
28.023006470020956;1105.3215246284608
28.085838323092748;1083.9587181260486
28.148670176164547;978.1849564278101
28.211502029236343;990.721704005404
28.274333882308138;1046.9480857425065
28.337165735379937;1036.1500468598665
28.39999758845173;1048.0469400603806
28.462829441523528;1073.8762835519456
28.52566129459532;1046.086161273287
28.58849314766712;989.98955434812
28.65132500073891;952.5905190325202
28.71415685381071;985.99032065772
28.776988706882502;1085.408561307001
28.8398205599543;1088.3603370004143
28.9026524130261;1032.096526791932
28.965484266097892;1006.62661967279
29.02831611916969;1017.4635971186713
29.091147972241483;1028.7731728338963
29.153979825313282;1008.2381749058487
29.216811678385074;970.9619614997844
29.279643531456873;986.065616401855
29.342475384528665;1007.8335292680244
29.405307237600464;1008.3674908496376
29.468139090672256;992.4039187368747
29.530970943744055;994.525742267715
29.593802796815854;971.0397839901277
29.656634649887646;916.8358111490822
29.719466502959445;901.8768605215305
29.782298356031237;925.1016393903661
29.845130209103036;950.5696736432026
29.90796206217483;1047.5174606995172
29.970793915246627;1026.5294145996872
30.03362576831842;980.4414939262464
30.09645762139022;924.2167792811052
30.15928947446201;929.6154445126485
30.22212132753381;932.448397930861
30.28495318060561;956.6605356740441
30.3477850336774;949.430409633958
30.4106168867492;925.8764728210022
30.47344873982099;960.6392672747269
30.53628059289279;983.8427765105821
30.599112445964582;919.3331454049433
30.66194429903638;891.4437639078651
30.724776152108173;915.0336908448561
30.787608005179973;918.9599281220219
30.85043985825177;898.2131933216259
30.913271711323564;886.7852976332056
30.976103564395363;883.8713576934432
31.038935417467155;903.1914827373641
31.101767270538954;873.168855978527
31.164599123610746;874.474400761801
31.227430976682545;919.820949936147
31.290262829754337;857.1179732386103
31.353094682826136;842.0618277282326
31.415926535897928;857.6888176404478
31.478758388969727;831.339389523948
31.541590242041526;841.1249945175936
31.604422095113318;811.8359320274259
31.667253948185117;751.3302752172442
31.73008580125691;806.038919738929
31.792917654328708;849.3873127724746
31.8557495074005;817.841712423801
31.9185813604723;837.2114168082293
31.98141321354409;841.8572469813894
32.04424506661589;806.9850490666431
32.107076919687685;786.9977839988783
32.169908772759484;773.2914549352834
32.232740625831276;795.4028163901302
32.295572478903075;819.7138813275857
32.35840433197487;824.4302791089162
32.421236185046666;770.4761237390428
32.484068038118465;772.4633387454844
32.54689989119026;753.2654535113908
32.60973174426206;734.4638154768202
32.67256359733385;767.5407858033793
32.73539545040565;818.1767123157224
32.79822730347744;877.535340703988
32.86105915654924;840.580530092946
32.92389100962103;794.3016009624039
32.98672286269283;790.8163530471543
33.04955471576463;768.8411293727274
33.11238656883642;780.2832621713297
33.17521842190822;787.3298950886362
33.23805027498001;737.1882015134778
33.30088212805181;763.480649457452
33.3637139811236;775.9380707732863
33.4265458341954;766.1925923546498
33.48937768726719;742.2300007338378
33.55220954033899;752.28180881243
33.61504139341079;701.506529790781
33.677873246482584;710.6953989147107
33.74070509955438;704.1307740634829
33.803536952626175;711.306701429447
33.866368805697974;691.3900822564483
33.929200658769766;652.8712361489922
33.992032511841565;626.7273167805231
