frequency;power spectrum
0.0;668340.15
0.06283185307179587;413975.2235918997
0.12566370614359174;178925.89494118784
0.18849555921538758;96629.32650468599
0.25132741228718347;55660.599864282165
0.3141592653589793;39277.78046270725
0.37699111843077515;29755.71961768971
0.43982297150257105;20790.47586863439
0.5026548245743669;15718.146633553255
0.5654866776461628;12534.076921672282
0.6283185307179586;10395.469909376996
0.6911503837897545;8051.9274063938665
0.7539822368615503;6846.316645420991
0.8168140899333463;6646.975959976254
0.8796459430051421;5722.561196807215
0.9424777960769378;4946.573230447087
1.0053096491487339;4169.640867932378
1.0681415022205298;3764.0492090249422
1.1309733552923256;3274.201925638716
1.1938052083641213;2933.8562152012432
1.2566370614359172;2765.86108231866
1.3194689145077132;2809.551775674138
1.382300767579509;2501.451857988047
1.4451326206513047;2288.4491424148314
1.5079644737231006;1992.0306697271722
1.5707963267948966;1881.082321390267
1.6336281798666925;1672.1450969665325
1.6964600329384882;1489.6687428100893
1.7592918860102842;1499.2672366348445
1.8221237390820801;1336.6967099763385
1.8849555921538756;1268.39587482977
1.9477874452256716;1317.2557057754275
2.0106192982974678;1172.2691146378377
2.0734511513692637;1054.2149341876025
2.1362830044410597;1055.2863791179104
2.199114857512855;981.2443708123699
2.261946710584651;902.5301208996881
2.324778563656447;925.0892519726971
2.3876104167282426;846.475568471424
2.4504422698000385;750.4230666291312
2.5132741228718345;688.989921615269
2.57610597594363;682.9583054672063
2.6389378290154264;694.8674008251368
2.701769682087222;727.3098939516631
2.764601535159018;708.4172693566859
2.827433388230814;612.4590016113647
2.8902652413026093;575.394522015308
2.9530970943744057;550.6676256457408
3.015928947446201;527.9054525611054
3.078760800517997;487.919265261938
3.141592653589793;495.3748080658539
3.204424506661589;484.8665560128094
3.267256359733385;445.52053809556656
3.330088212805181;433.32063338772576
3.3929200658769765;412.5136019573207
3.4557519189487724;413.27035662820504
3.5185837720205684;398.9963947676312
3.581415625092364;360.19003236490346
3.6442474781641603;365.5483977257404
3.707079331235956;369.43301791509475
3.7699111843077513;371.3841094565731
3.8327430373795477;377.87213976432395
3.895574890451343;335.13429095984463
3.9584067435231396;296.73716344280524
4.0212385965949355;310.19801767319694
4.084070449666731;318.56430806952136
4.1469023027385274;313.47107419084625
4.209734155810323;283.140266565019
4.272566008882119;282.6086174201772
4.335397861953915;288.8027799973792
4.39822971502571;275.2766826672352
4.461061568097507;265.5112762104688
4.523893421169302;242.61963502566235
4.586725274241098;248.5862085766084
4.649557127312894;255.02887702337668
4.71238898038469;236.28205153089212
4.775220833456485;231.35028770516246
4.838052686528282;227.83947860418516
4.900884539600077;205.40015917968415
4.9637163926718735;197.4503486395314
5.026548245743669;200.88132709510074
5.0893800988154645;203.7145426407669
5.15221195188726;194.3359845841227
5.215043804959057;200.0666734321367
5.277875658030853;208.13621940567762
5.340707511102648;214.44253219352123
5.403539364174444;189.85179988776156
5.466371217246239;179.76672606773832
5.529203070318036;190.7982436606426
5.592034923389832;171.84803039442534
5.654866776461628;166.26733855416308
5.717698629533423;167.03707369983616
5.780530482605219;163.4024975676439
5.843362335677015;159.58340008391644
5.906194188748811;155.259651614028
5.969026041820607;161.94624783905286
6.031857894892402;170.26170733972674
6.094689747964199;176.9688836761262
6.157521601035994;156.53285094769785
6.220353454107791;154.14704705705788
6.283185307179586;141.88144761975258
6.346017160251382;142.95449674933747
6.408849013323178;143.75924617342045
6.471680866394974;147.77867038445652
6.53451271946677;135.79070913499373
6.5973445725385655;138.61615754706446
6.660176425610362;134.43962434612038
6.7230082786821574;128.26538523128258
6.785840131753953;125.63687802456953
6.8486719848257485;128.02442792223454
6.911503837897545;131.92545190276374
6.974335690969341;128.85569688590357
7.037167544041137;122.62942371313797
7.099999397112932;125.85634255366931
7.162831250184728;108.83823559541977
7.225663103256525;103.96192555248562
7.288494956328321;114.95595658244797
7.351326809400116;113.766
7.414158662471912;112.78302815051478
7.476990515543707;112.28414928259542
7.539822368615503;106.3112895241062
7.6026542216873;111.9411571609416
7.665486074759095;115.96213343230957
7.728317927830891;112.15295177336928
7.791149780902686;111.1628997763387
7.853981633974482;100.9755985678519
7.916813487046279;106.06143461887662
7.979645340118075;101.40589897882663
8.042477193189871;95.3068996545109
8.105309046261667;98.72739682998981
8.168140899333462;104.68101146191292
8.230972752405258;105.97634178565431
8.293804605477055;100.5102585129335
8.35663645854885;97.40299170244063
8.419468311620646;98.73530263991833
8.482300164692441;95.92963458094212
8.545132017764239;93.39359983808416
8.607963870836034;97.90341774726619
8.67079572390783;90.2629254914663
8.733627576979625;92.39935115496392
8.79645943005142;92.35489217856136
8.859291283123216;88.97666470597159
8.922123136195014;88.18506277328294
8.984954989266809;89.48893928980398
9.047786842338605;95.44771429751414
9.1106186954104;99.1321282491129
9.173450548482196;96.50285827604128
9.236282401553993;93.50410131770748
9.299114254625788;87.79242937825973
9.361946107697584;85.53913197968372
9.42477796076938;84.153132784123
9.487609813841175;84.56042882849015
9.55044166691297;85.29056202319494
9.613273519984768;87.87830548324115
9.676105373056563;84.24755730622968
9.738937226128359;78.54376543810947
9.801769079200154;81.60677419118463
9.86460093227195;90.58590364558563
9.927432785343747;95.79028434586309
9.990264638415542;79.49360802100233
10.053096491487338;74.11477868314186
10.115928344559133;80.4633139165385
10.178760197630929;83.71959998630874
10.241592050702724;77.82111884528217
10.30442390377452;76.42992890498394
10.367255756846316;77.14184893787292
10.430087609918115;74.76123093963106
10.49291946298991;75.59676113733146
10.555751316061706;78.51927367473454
10.618583169133501;74.7173633055831
10.681415022205297;78.50062016608373
10.744246875277092;77.46539169862896
10.807078728348888;76.06427814997159
10.869910581420683;72.60946957594655
10.932742434492479;70.20844972567573
10.995574287564274;64.8260378114008
11.058406140636071;64.8260378114008
11.121237993707869;70.20844972567573
11.184069846779664;72.60946957594655
11.24690169985146;76.06427814997159
11.309733552923255;77.46539169862896
11.37256540599505;78.50062016608373
11.435397259066846;74.7173633055831
11.498229112138642;78.51927367473454
11.561060965210437;75.59676113733146
11.623892818282235;74.76123093963106
11.68672467135403;77.14184893787292
11.749556524425827;76.42992890498394
11.812388377497623;77.82111884528217
11.875220230569418;83.71959998630874
11.938052083641214;80.4633139165385
12.00088393671301;74.11477868314186
12.063715789784805;79.49360802100233
12.1265476428566;95.79028434586309
12.189379495928398;90.58590364558563
12.252211349000193;81.60677419118463
12.315043202071989;78.54376543810947
12.377875055143784;84.24755730622968
12.440706908215581;87.87830548324115
12.503538761287377;85.29056202319494
12.566370614359172;84.56042882849015
12.629202467430968;84.153132784123
12.692034320502763;85.53913197968372
12.75486617357456;87.79242937825973
12.817698026646356;93.50410131770748
12.880529879718152;96.50285827604128
12.943361732789947;99.1321282491129
13.006193585861743;95.44771429751414
13.06902543893354;89.48893928980398
13.131857292005336;88.18506277328294
13.194689145077131;88.97666470597159
13.257520998148927;92.35489217856136
13.320352851220724;92.39935115496392
13.38318470429252;90.2629254914663
13.446016557364315;97.90341774726619
13.50884841043611;93.39359983808416
13.571680263507906;95.92963458094212
13.634512116579701;98.73530263991833
13.697343969651497;97.40299170244063
13.760175822723294;100.5102585129335
13.82300767579509;105.97634178565431
13.885839528866887;104.68101146191292
13.948671381938683;98.72739682998981
14.011503235010478;95.3068996545109
14.074335088082274;101.40589897882663
14.137166941154069;106.06143461887662
14.199998794225865;100.9755985678519
14.26283064729766;111.1628997763387
14.325662500369456;112.15295177336928
14.388494353441251;115.96213343230957
14.45132620651305;111.9411571609416
14.514158059584846;106.3112895241062
14.576989912656641;112.28414928259542
14.639821765728437;112.78302815051478
14.702653618800232;113.766
14.765485471872028;114.95595658244797
14.828317324943823;103.96192555248562
14.891149178015619;108.83823559541977
14.953981031087414;125.85634255366931
15.01681288415921;122.62942371313797
15.079644737231005;128.85569688590357
15.142476590302804;131.92545190276374
15.2053084433746;128.02442792223454
15.268140296446395;125.63687802456953
15.33097214951819;128.26538523128258
15.393804002589986;134.43962434612038
15.456635855661782;138.61615754706446
15.519467708733577;135.79070913499373
15.582299561805373;147.77867038445652
15.645131414877168;143.75924617342045
15.707963267948964;142.95449674933747
15.770795121020763;141.88144761975258
15.833626974092558;154.14704705705788
15.896458827164354;156.53285094769785
15.95929068023615;176.9688836761262
16.022122533307947;170.26170733972674
16.084954386379742;161.94624783905286
16.147786239451538;155.259651614028
16.210618092523333;159.58340008391644
16.27344994559513;163.4024975676439
16.336281798666924;167.03707369983616
16.39911365173872;166.26733855416308
16.461945504810515;171.84803039442534
16.524777357882314;190.7982436606426
16.58760921095411;179.76672606773832
16.650441064025905;189.85179988776156
16.7132729170977;214.44253219352123
16.776104770169496;208.13621940567762
16.838936623241292;200.0666734321367
16.901768476313087;194.3359845841227
16.964600329384883;203.7145426407669
17.02743218245668;200.88132709510074
17.090264035528477;197.4503486395314
17.153095888600273;205.40015917968415
17.21592774167207;227.83947860418516
17.278759594743864;231.35028770516246
17.34159144781566;236.28205153089212
17.404423300887455;255.02887702337668
17.46725515395925;248.5862085766084
17.530087007031046;242.61963502566235
17.59291886010284;265.5112762104688
17.655750713174637;275.2766826672352
17.718582566246432;288.8027799973792
17.78141441931823;282.6086174201772
17.844246272390027;283.140266565019
17.907078125461823;313.47107419084625
17.969909978533618;318.56430806952136
18.032741831605414;310.19801767319694
18.09557368467721;296.73716344280524
18.158405537749005;335.13429095984463
18.2212373908208;377.87213976432395
18.284069243892596;371.3841094565731
18.34690109696439;369.43301791509475
18.409732950036187;365.5483977257404
18.472564803107986;360.19003236490346
18.53539665617978;398.9963947676312
18.598228509251577;413.27035662820504
18.661060362323372;412.5136019573207
18.723892215395168;433.32063338772576
18.786724068466963;445.52053809556656
18.84955592153876;484.8665560128094
18.912387774610554;495.3748080658539
18.97521962768235;487.919265261938
19.038051480754145;527.9054525611054
19.10088333382594;550.6676256457408
19.16371518689774;575.394522015308
19.226547039969535;612.4590016113647
19.28937889304133;708.4172693566859
19.352210746113126;727.3098939516631
19.415042599184922;694.8674008251368
19.477874452256717;682.9583054672063
19.540706305328513;688.989921615269
19.60353815840031;750.4230666291312
19.666370011472104;846.475568471424
19.7292018645439;925.0892519726971
19.7920337176157;902.5301208996881
19.854865570687494;981.2443708123699
19.91769742375929;1055.2863791179104
19.980529276831085;1054.2149341876025
20.04336112990288;1172.2691146378377
20.106192982974676;1317.2557057754275
20.16902483604647;1268.39587482977
20.231856689118267;1336.6967099763385
20.294688542190062;1499.2672366348445
20.357520395261858;1489.6687428100893
20.420352248333653;1672.1450969665325
20.48318410140545;1881.082321390267
20.546015954477248;1992.0306697271722
20.60884780754904;2288.4491424148314
20.67167966062084;2501.451857988047
20.73451151369263;2809.551775674138
20.79734336676443;2765.86108231866
20.86017521983623;2933.8562152012432
20.92300707290802;3274.201925638716
20.98583892597982;3764.0492090249422
21.048670779051612;4169.640867932378
21.11150263212341;4946.573230447087
21.174334485195203;5722.561196807215
21.237166338267002;6646.975959976254
21.299998191338794;6846.316645420991
21.362830044410593;8051.9274063938665
21.425661897482385;10395.469909376996
21.488493750554184;12534.076921672282
21.551325603625983;15718.146633553255
21.614157456697775;20790.47586863439
21.676989309769574;29755.71961768971
21.739821162841366;39277.78046270725
21.802653015913165;55660.599864282165
21.865484868984957;96629.32650468599
21.928316722056756;178925.89494118784
21.99114857512855;413975.2235918997
