frequency;power spectrum
0.0;263080.521
0.06283185307179587;187439.22712546992
0.12566370614359174;89693.66861944653
0.18849555921538758;50544.74139342283
0.25132741228718347;32723.761637341304
0.3141592653589793;22858.318392426376
0.37699111843077515;16289.723490337747
0.43982297150257105;12763.390801973403
0.5026548245743669;9928.496828350395
0.5654866776461628;7603.945545856497
0.6283185307179586;6128.984583862553
0.6911503837897545;5222.956581007425
0.7539822368615503;4395.67321949945
0.8168140899333463;3710.216146490638
0.8796459430051421;2957.2483878855205
0.9424777960769378;2511.381407529037
1.0053096491487339;2300.1072159042847
1.0681415022205298;2060.2450955747568
1.1309733552923256;1856.19427593632
1.1938052083641213;1694.301026152378
1.2566370614359172;1622.885552512614
1.3194689145077132;1483.1321703305046
1.382300767579509;1350.7715609438183
1.4451326206513047;1213.182434205604
1.5079644737231006;1084.907227131056
1.5707963267948966;1065.6206212632464
1.6336281798666925;996.2020773430283
1.6964600329384882;928.6453135476665
1.7592918860102842;865.6606539696761
1.8221237390820801;822.285085145982
1.8849555921538756;790.8827920067032
1.9477874452256716;713.0252602831143
2.0106192982974678;647.9102399544918
2.0734511513692637;608.3886078960013
2.1362830044410597;571.9652707705638
2.199114857512855;548.7689451665493
2.261946710584651;548.62736292413
2.324778563656447;507.04875121031006
2.3876104167282426;471.1863242039734
2.4504422698000385;442.77968121744465
2.5132741228718345;437.14875333596717
2.57610597594363;423.09116475351215
2.6389378290154264;391.7878799321543
2.701769682087222;347.2711520821043
2.764601535159018;333.1697475913828
2.827433388230814;350.1224774158666
2.8902652413026093;334.66773633584904
2.9530970943744057;315.82236633247135
3.015928947446201;300.9382516793294
3.078760800517997;284.4049520814276
3.141592653589793;280.6418518113721
3.204424506661589;265.7807186855388
3.267256359733385;250.72017345099562
3.330088212805181;252.7828541788025
3.3929200658769765;242.15847953503982
3.4557519189487724;244.3263599201143
3.5185837720205684;249.77753222862842
3.581415625092364;241.26162177174385
3.6442474781641603;222.67394073818735
3.707079331235956;209.8109730787723
3.7699111843077513;205.15625042632863
3.8327430373795477;197.80600293019486
3.895574890451343;190.4562993858484
3.9584067435231396;189.53987188855078
4.0212385965949355;186.1516753419157
4.084070449666731;182.29559180248938
4.1469023027385274;186.8764790053753
4.209734155810323;180.87168143678807
4.272566008882119;174.58857045636063
4.335397861953915;169.40607725573736
4.39822971502571;173.3589276532177
4.461061568097507;167.1513447011053
4.523893421169302;167.9363831655733
4.586725274241098;167.89586487970917
4.649557127312894;155.57350645969254
4.71238898038469;148.50924001825064
4.775220833456485;149.28725357418182
4.838052686528282;150.51027650111104
4.900884539600077;140.71512205886916
4.9637163926718735;137.33880699302253
5.026548245743669;133.73568451988348
5.0893800988154645;127.61624656379634
5.15221195188726;129.78923460733947
5.215043804959057;138.23676216216538
5.277875658030853;140.30105890943176
5.340707511102648;131.14240649962744
5.403539364174444;119.78988610066989
5.466371217246239;113.24714000765334
5.529203070318036;117.36296143324586
5.592034923389832;117.22190570290444
5.654866776461628;118.32325377195133
5.717698629533423;120.1350966329775
5.780530482605219;114.91991588339326
5.843362335677015;110.84204720992878
5.906194188748811;107.07086169042108
5.969026041820607;102.354
6.031857894892402;105.62628009968466
6.094689747964199;106.65262706597372
6.157521601035994;103.88583588779105
6.220353454107791;98.88031295338627
6.283185307179586;100.31353297515572
6.346017160251382;101.66074786697655
6.408849013323178;95.25997219668288
6.471680866394974;98.0108280865294
6.53451271946677;96.98306393341882
6.5973445725385655;93.7005102380667
6.660176425610362;91.28892719784395
6.7230082786821574;87.85300729794601
6.785840131753953;89.3711221113996
6.8486719848257485;95.20712580288311
6.911503837897545;93.31632971772953
6.974335690969341;92.04920996422678
7.037167544041137;92.30653819104272
7.099999397112932;88.13608623707307
7.162831250184728;81.80537822825627
7.225663103256525;80.17518536715023
7.288494956328321;81.2651588763911
7.351326809400116;84.4764476754424
7.414158662471912;85.12553379269701
7.476990515543707;84.67399362504084
7.539822368615503;83.71609883768967
7.6026542216873;79.99865792532667
7.665486074759095;80.96100945284226
7.728317927830891;82.14358613981817
7.791149780902686;80.27851089563278
7.853981633974482;78.68624496305851
7.916813487046279;72.44961322237644
7.979645340118075;72.39337409422743
8.042477193189871;73.64403092318136
8.105309046261667;73.58811339671668
8.168140899333462;71.34863291659799
8.230972752405258;68.14872050627464
8.293804605477055;67.59293281922493
8.35663645854885;65.0713960694683
8.419468311620646;62.663019923806104
8.482300164692441;62.41096975610873
8.545132017764239;60.7738243332913
8.607963870836034;60.616751899268465
8.67079572390783;57.854277785081585
8.733627576979625;55.89332706023685
8.79645943005142;56.93940328631092
8.859291283123216;52.646087639280935
8.922123136195014;45.74927970238904
8.984954989266809;45.74927970238904
9.047786842338605;52.646087639280935
9.1106186954104;56.93940328631092
9.173450548482196;55.89332706023685
9.236282401553993;57.854277785081585
9.299114254625788;60.616751899268465
9.361946107697584;60.7738243332913
9.42477796076938;62.41096975610873
9.487609813841175;62.663019923806104
9.55044166691297;65.0713960694683
9.613273519984768;67.59293281922493
9.676105373056563;68.14872050627464
9.738937226128359;71.34863291659799
9.801769079200154;73.58811339671668
9.86460093227195;73.64403092318136
9.927432785343747;72.39337409422743
9.990264638415542;72.44961322237644
10.053096491487338;78.68624496305851
10.115928344559133;80.27851089563278
10.178760197630929;82.14358613981817
10.241592050702724;80.96100945284226
10.30442390377452;79.99865792532667
10.367255756846316;83.71609883768967
10.430087609918115;84.67399362504084
10.49291946298991;85.12553379269701
10.555751316061706;84.4764476754424
10.618583169133501;81.2651588763911
10.681415022205297;80.17518536715023
10.744246875277092;81.80537822825627
10.807078728348888;88.13608623707307
10.869910581420683;92.30653819104272
10.932742434492479;92.04920996422678
10.995574287564274;93.31632971772953
11.058406140636071;95.20712580288311
11.121237993707869;89.3711221113996
11.184069846779664;87.85300729794601
11.24690169985146;91.28892719784395
11.309733552923255;93.7005102380667
11.37256540599505;96.98306393341882
11.435397259066846;98.0108280865294
11.498229112138642;95.25997219668288
11.561060965210437;101.66074786697655
11.623892818282235;100.31353297515572
11.68672467135403;98.88031295338627
11.749556524425827;103.88583588779105
11.812388377497623;106.65262706597372
11.875220230569418;105.62628009968466
11.938052083641214;102.354
12.00088393671301;107.07086169042108
12.063715789784805;110.84204720992878
12.1265476428566;114.91991588339326
12.189379495928398;120.1350966329775
12.252211349000193;118.32325377195133
12.315043202071989;117.22190570290444
12.377875055143784;117.36296143324586
12.440706908215581;113.24714000765334
12.503538761287377;119.78988610066989
12.566370614359172;131.14240649962744
12.629202467430968;140.30105890943176
12.692034320502763;138.23676216216538
12.75486617357456;129.78923460733947
12.817698026646356;127.61624656379634
12.880529879718152;133.73568451988348
12.943361732789947;137.33880699302253
13.006193585861743;140.71512205886916
13.06902543893354;150.51027650111104
13.131857292005336;149.28725357418182
13.194689145077131;148.50924001825064
13.257520998148927;155.57350645969254
13.320352851220724;167.89586487970917
13.38318470429252;167.9363831655733
13.446016557364315;167.1513447011053
13.50884841043611;173.3589276532177
13.571680263507906;169.40607725573736
13.634512116579701;174.58857045636063
13.697343969651497;180.87168143678807
13.760175822723294;186.8764790053753
13.82300767579509;182.29559180248938
13.885839528866887;186.1516753419157
13.948671381938683;189.53987188855078
14.011503235010478;190.4562993858484
14.074335088082274;197.80600293019486
14.137166941154069;205.15625042632863
14.199998794225865;209.8109730787723
14.26283064729766;222.67394073818735
14.325662500369456;241.26162177174385
14.388494353441251;249.77753222862842
14.45132620651305;244.3263599201143
14.514158059584846;242.15847953503982
14.576989912656641;252.7828541788025
14.639821765728437;250.72017345099562
14.702653618800232;265.7807186855388
14.765485471872028;280.6418518113721
14.828317324943823;284.4049520814276
14.891149178015619;300.9382516793294
14.953981031087414;315.82236633247135
15.01681288415921;334.66773633584904
15.079644737231005;350.1224774158666
15.142476590302804;333.1697475913828
15.2053084433746;347.2711520821043
15.268140296446395;391.7878799321543
15.33097214951819;423.09116475351215
15.393804002589986;437.14875333596717
15.456635855661782;442.77968121744465
15.519467708733577;471.1863242039734
15.582299561805373;507.04875121031006
15.645131414877168;548.62736292413
15.707963267948964;548.7689451665493
15.770795121020763;571.9652707705638
15.833626974092558;608.3886078960013
15.896458827164354;647.9102399544918
15.95929068023615;713.0252602831143
16.022122533307947;790.8827920067032
16.084954386379742;822.285085145982
16.147786239451538;865.6606539696761
16.210618092523333;928.6453135476665
16.27344994559513;996.2020773430283
16.336281798666924;1065.6206212632464
16.39911365173872;1084.907227131056
16.461945504810515;1213.182434205604
16.524777357882314;1350.7715609438183
16.58760921095411;1483.1321703305046
16.650441064025905;1622.885552512614
16.7132729170977;1694.301026152378
16.776104770169496;1856.19427593632
16.838936623241292;2060.2450955747568
16.901768476313087;2300.1072159042847
16.964600329384883;2511.381407529037
17.02743218245668;2957.2483878855205
17.090264035528477;3710.216146490638
17.153095888600273;4395.67321949945
17.21592774167207;5222.956581007425
17.278759594743864;6128.984583862553
17.34159144781566;7603.945545856497
17.404423300887455;9928.496828350395
17.46725515395925;12763.390801973403
17.530087007031046;16289.723490337747
17.59291886010284;22858.318392426376
17.655750713174637;32723.761637341304
17.718582566246432;50544.74139342283
17.78141441931823;89693.66861944653
17.844246272390027;187439.22712546992
