frequency;power spectrum
0.0;73356322.469
0.06283185307179587;50447010.20380513
0.12566370614359174;23696090.242353115
0.18849555921538758;10421956.609165825
0.25132741228718347;5180304.522915078
0.3141592653589793;2897348.327156281
0.37699111843077515;1837242.4452752026
0.43982297150257105;1228500.693474484
0.5026548245743669;879490.1841586938
0.5654866776461628;627223.0314367396
0.6283185307179586;472842.2294474072
0.6911503837897545;427500.44268324575
0.7539822368615503;355294.7936138769
0.8168140899333463;297649.5543094791
0.8796459430051421;245063.95288256157
0.9424777960769378;220602.83947489192
1.0053096491487339;201326.39860200317
1.0681415022205298;197819.86491241242
1.1309733552923256;173699.6662826104
1.1938052083641213;154944.196040306
1.2566370614359172;138089.09634432575
1.3194689145077132;134769.93462047563
1.382300767579509;124308.70619211443
1.4451326206513047;114579.53936036289
1.5079644737231006;108348.17918539522
1.5707963267948966;108138.83951835193
1.6336281798666925;101664.93217901369
1.6964600329384882;90620.07050029679
1.7592918860102842;82034.94905308077
1.8221237390820801;76945.70946582255
1.8849555921538756;72198.00290056497
1.9477874452256716;65343.11641955402
2.0106192982974678;65772.16786238122
2.0734511513692637;61592.86199624472
2.1362830044410597;57910.74024455906
2.199114857512855;56000.472787378734
2.261946710584651;52796.58989580602
2.324778563656447;52080.538634715514
2.3876104167282426;47494.67776648998
2.4504422698000385;44809.151307753724
2.5132741228718345;43802.436778571566
2.57610597594363;44339.16358772315
2.6389378290154264;41404.00948586713
2.701769682087222;38591.408159080835
2.764601535159018;39081.35875795282
2.827433388230814;37383.215358803696
2.8902652413026093;34947.929178003855
2.9530970943744057;35499.7254519906
3.015928947446201;36835.27258603738
3.078760800517997;33121.32430964442
3.141592653589793;30128.561463019378
3.204424506661589;28253.3187139608
3.267256359733385;26894.85436399212
3.330088212805181;26280.226011712875
3.3929200658769765;27759.999816637173
3.4557519189487724;28193.124780467868
3.5185837720205684;26992.12260080075
3.581415625092364;26135.40442132635
3.6442474781641603;25603.823412991806
3.707079331235956;25418.22316243208
3.7699111843077513;24248.524274190902
3.8327430373795477;21950.48931446641
3.895574890451343;21122.91597459843
3.9584067435231396;22485.993960600837
4.0212385965949355;24717.576805751996
4.084070449666731;22742.234887816874
4.1469023027385274;21224.465751355823
4.209734155810323;19061.85251440461
4.272566008882119;18993.33083702213
4.335397861953915;19593.71030812196
4.39822971502571;18862.69357540367
4.461061568097507;18629.582383125486
4.523893421169302;17786.011084036123
4.586725274241098;18115.95688964249
4.649557127312894;17561.001500446393
4.71238898038469;17494.3796883499
4.775220833456485;16570.74331285905
4.838052686528282;16068.566700928053
4.900884539600077;15870.046856684961
4.9637163926718735;15421.020732019148
5.026548245743669;14422.947013907338
5.0893800988154645;14001.445878611592
5.15221195188726;13475.8765236642
5.215043804959057;13696.069145803438
5.277875658030853;13787.116574942478
5.340707511102648;13039.284275575134
5.403539364174444;13066.637307772111
5.466371217246239;13493.267797962388
5.529203070318036;13550.759322753594
5.592034923389832;13849.933555005373
5.654866776461628;13766.991326303934
5.717698629533423;13022.156886716633
5.780530482605219;11513.256330437724
5.843362335677015;11004.314707226758
5.906194188748811;11524.76373911073
5.969026041820607;11778.960440730525
6.031857894892402;11063.081078537958
6.094689747964199;10738.53834896203
6.157521601035994;9933.392862247385
6.220353454107791;9892.012049866958
6.283185307179586;9215.770870214572
6.346017160251382;9403.329737315058
6.408849013323178;9622.963956849113
6.471680866394974;9871.029909529785
6.53451271946677;9814.467677800121
6.5973445725385655;9740.25348160849
6.660176425610362;9882.991981265737
6.7230082786821574;9499.684054703937
6.785840131753953;8582.271145028895
6.8486719848257485;8422.937806310501
6.911503837897545;8820.949752440863
6.974335690969341;8498.182432887686
7.037167544041137;7937.300917547093
7.099999397112932;7937.620746538774
7.162831250184728;7753.65144267581
7.225663103256525;7701.411198793278
7.288494956328321;7629.604975202314
7.351326809400116;7509.677372189366
7.414158662471912;7452.675354997929
7.476990515543707;7692.779503111681
7.539822368615503;7834.510981575882
7.6026542216873;7369.982620576589
7.665486074759095;7193.6120668978
7.728317927830891;6957.217154171818
7.791149780902686;6324.736839655373
7.853981633974482;6194.972798936002
7.916813487046279;6335.975610416066
7.979645340118075;6251.838255152107
8.042477193189871;6694.446068807199
8.105309046261667;6707.631683875498
8.168140899333462;6831.4720858409855
8.230972752405258;7084.573187290369
8.293804605477055;6784.120676790714
8.35663645854885;6747.788254029427
8.419468311620646;6440.759956815466
8.482300164692441;6112.097453112693
8.545132017764239;6443.339875376865
8.607963870836034;6295.43153499359
8.67079572390783;6234.486281121369
8.733627576979625;5905.815238138712
8.79645943005142;6009.093137597581
8.859291283123216;5677.03820188747
8.922123136195014;5621.327157195786
8.984954989266809;5567.809184747588
9.047786842338605;5116.133902707547
9.1106186954104;5083.275564285254
9.173450548482196;5271.774204944917
9.236282401553993;5608.514125143924
9.299114254625788;5572.135518515018
9.361946107697584;5647.337375616351
9.42477796076938;5592.253816310351
9.487609813841175;5409.459685884876
9.55044166691297;5310.1180252283475
9.613273519984768;5193.3622599884975
9.676105373056563;5132.0809478028905
9.738937226128359;5208.554171291537
9.801769079200154;5122.961114032405
9.86460093227195;5027.52035554577
9.927432785343747;5083.34247638372
9.990264638415542;4994.16263959637
10.053096491487338;4902.923109301888
10.115928344559133;4378.683190175564
10.178760197630929;4310.384314596433
10.241592050702724;4808.927304526473
10.30442390377452;5076.157486654881
10.367255756846316;4912.63429082814
10.430087609918115;4739.876951759706
10.49291946298991;4772.027603754943
10.555751316061706;4481.035110241133
10.618583169133501;4432.307907803518
10.681415022205297;4484.154040465122
10.744246875277092;4314.736694307037
10.807078728348888;4180.042973354452
10.869910581420683;4143.221726582568
10.932742434492479;4228.568004397459
10.995574287564274;3982.7578958982153
11.058406140636071;3952.55603739018
11.121237993707869;3846.7730514308905
11.184069846779664;3947.522890632672
11.24690169985146;3969.8133097076898
11.309733552923255;4083.757372358964
11.37256540599505;3948.327425706124
11.435397259066846;4201.257842825422
11.498229112138642;4220.207408904686
11.561060965210437;4186.195365518011
11.623892818282235;3930.336915795419
11.68672467135403;3899.135056481198
11.749556524425827;4110.076708606259
11.812388377497623;4246.012078840796
11.875220230569418;4246.23108071818
11.938052083641214;4111.857987949049
12.00088393671301;3996.3978118070672
12.063715789784805;3621.395477392078
12.1265476428566;3507.7425525839603
12.189379495928398;3650.5277639484375
12.252211349000193;3751.86626040419
12.315043202071989;3554.1692996707866
12.377875055143784;3646.6390419288105
12.440706908215581;3754.9572624028524
12.503538761287377;3722.522155518087
12.566370614359172;3573.0211819412752
12.629202467430968;3529.5076214491087
12.692034320502763;3464.8235238396787
12.75486617357456;3485.9450470567735
12.817698026646356;3444.983440102108
12.880529879718152;3432.791124199196
12.943361732789947;3301.631540158519
13.006193585861743;3105.1529995368046
13.06902543893354;3081.387275561025
13.131857292005336;3092.5179323005314
13.194689145077131;3215.641700514944
13.257520998148927;3336.87247659503
13.320352851220724;3283.4125665690967
13.38318470429252;3148.5240286056865
13.446016557364315;2942.6326908491
13.50884841043611;3225.4010555535237
13.571680263507906;3180.9246239315407
13.634512116579701;2978.968945277332
13.697343969651497;2841.9453855202687
13.760175822723294;2914.9750965170233
13.82300767579509;3064.8560149890945
13.885839528866887;3146.324321829049
13.948671381938683;3069.1991221995777
14.011503235010478;3060.3037251319633
14.074335088082274;2917.74175368898
14.137166941154069;2952.5981967266102
14.199998794225865;2748.5316365769067
14.26283064729766;2637.5000755345277
14.325662500369456;2653.1883212877838
14.388494353441251;2691.9336787150896
14.45132620651305;2737.1805057915785
14.514158059584846;2842.2562868085706
14.576989912656641;2693.6363724837265
14.639821765728437;2668.055737706847
14.702653618800232;2657.7035650134176
14.765485471872028;2761.5320018666794
14.828317324943823;2730.2684412793074
14.891149178015619;2642.152971439338
14.953981031087414;2826.897949348719
15.01681288415921;2883.254750009048
15.079644737231005;2897.7266721726455
15.142476590302804;2627.864147537486
15.2053084433746;2593.3577843972444
15.268140296446395;2655.4282955197773
15.33097214951819;2576.9954051624045
15.393804002589986;2366.323091596771
15.456635855661782;2253.289988431256
15.519467708733577;2419.954211322248
15.582299561805373;2712.6136996388777
15.645131414877168;2796.7226686618437
15.707963267948964;2666.4631124021494
15.770795121020763;2619.7440157003825
15.833626974092558;2549.3558734387457
15.896458827164354;2349.1944162783516
15.95929068023615;2245.197621131471
16.022122533307947;2362.7801594648204
16.084954386379742;2391.602781893503
16.147786239451538;2367.69621404303
16.210618092523333;2214.382953055093
16.27344994559513;2224.8476136250256
16.336281798666924;2379.149978961257
16.39911365173872;2338.2535910551405
16.461945504810515;2318.5964314851935
16.524777357882314;2295.602220515474
16.58760921095411;2311.263830332777
16.650441064025905;2273.4402753337963
16.7132729170977;2263.4067683510466
16.776104770169496;2182.0696072284504
16.838936623241292;2299.939697565826
16.901768476313087;2433.5977161692763
16.964600329384883;2461.793537860621
17.02743218245668;2369.529786865034
17.090264035528477;2297.099478789199
17.153095888600273;2288.7974410389797
17.21592774167207;2203.3374968438748
17.278759594743864;2014.636479603517
17.34159144781566;1876.6964418479884
17.404423300887455;1973.8835233368377
17.46725515395925;2214.3038135074557
17.530087007031046;2277.7885125439216
17.59291886010284;2162.0600505284915
17.655750713174637;2297.9792827408946
17.718582566246432;2447.65292850605
17.78141441931823;2378.8797231168646
17.844246272390027;2281.120094596358
17.907078125461823;2161.0955517652196
17.969909978533618;2017.4461684162454
18.032741831605414;2108.83050050914
18.09557368467721;2118.8718089977156
18.158405537749005;1984.3115951445247
18.2212373908208;1928.6529008643806
18.284069243892596;1962.0828561023866
18.34690109696439;1980.1870648525237
18.409732950036187;2038.5177699559601
18.472564803107986;2084.498775712712
18.53539665617978;2110.479785641482
18.598228509251577;2089.3905225012422
18.661060362323372;1977.7926076446743
18.723892215395168;1991.5106054997323
18.786724068466963;2004.757186059839
18.84955592153876;2061.383168385938
18.912387774610554;1992.017
18.97521962768235;1865.6227355880358
19.038051480754145;1787.8985323863847
19.10088333382594;1824.6371240372819
19.16371518689774;1834.941016644027
19.226547039969535;1783.086714094285
19.28937889304133;1683.404790021118
19.352210746113126;1731.817011691126
19.415042599184922;1643.2857554864288
19.477874452256717;1674.9701653164855
19.540706305328513;1627.0567124791048
19.60353815840031;1541.6603150449537
19.666370011472104;1659.7592872308303
19.7292018645439;1860.4763230782382
19.7920337176157;1837.73231836195
19.854865570687494;1852.33006303188
19.91769742375929;1733.9267367318255
19.980529276831085;1752.9163000746482
20.04336112990288;1811.6573464207886
20.106192982974676;1738.5325280535183
20.16902483604647;1620.911222209086
20.231856689118267;1755.3023019824393
20.294688542190062;1828.2817236497506
20.357520395261858;1737.8308003056297
20.420352248333653;1559.2331214653022
20.48318410140545;1586.678698014054
20.546015954477248;1650.0412594858574
20.60884780754904;1656.2588669706588
20.67167966062084;1708.9097710588592
20.73451151369263;1669.9618943046255
20.79734336676443;1594.133993476551
20.86017521983623;1652.37723611203
20.92300707290802;1664.2684091540664
20.98583892597982;1656.6570580356474
21.048670779051612;1642.7590004068447
21.11150263212341;1611.9180810008718
21.174334485195203;1578.00504172788
21.237166338267002;1514.4448473647863
21.299998191338794;1515.1397073075482
21.362830044410593;1506.8171848613686
21.425661897482385;1489.669050504869
21.488493750554184;1542.0267321205502
21.551325603625983;1555.504060441984
21.614157456697775;1647.9554845810328
21.676989309769574;1675.8272328278492
21.739821162841366;1529.4034528245272
21.802653015913165;1502.536142026267
21.865484868984957;1478.0207562679445
21.928316722056756;1515.2671628720104
21.99114857512855;1539.9383232440643
22.053980428200347;1519.9262221247914
22.116812281272143;1522.819414487913
22.17964413434394;1550.9684810450528
22.242475987415737;1509.7508671484527
22.30530784048753;1522.0892572681844
22.36813969355933;1553.6951777076504
22.43097154663112;1536.1959399479413
22.49380339970292;1499.2972645570137
22.55663525277471;1569.13449169727
22.61946710584651;1659.9735912505666
22.682298958918306;1591.9543857153399
22.7451308119901;1518.311629584907
22.8079626650619;1567.1806516353336
22.870794518133692;1449.5518214257809
22.93362637120549;1371.3312435468215
22.996458224277283;1436.310551882789
23.059290077349083;1408.3622842356735
23.122121930420874;1375.7492812789662
23.184953783492674;1403.1351566760952
23.24778563656447;1384.8158130627617
23.310617489636265;1416.9703091325919
23.37344934270806;1456.59316073598
23.436281195779856;1377.7403271569908
23.499113048851655;1407.9734872340948
23.561944901923447;1438.5979303218005
23.624776754995246;1365.0458081298402
23.687608608067038;1307.0010159179778
23.750440461138837;1343.535655011788
23.813272314210632;1320.4928236745436
23.876104167282428;1258.4135761612683
23.938936020354223;1293.9684016991596
24.00176787342602;1272.9781741184386
24.064599726497814;1331.0556725401964
24.12743157956961;1361.0021644008216
24.19026343264141;1329.1000072101328
24.2530952857132;1278.7924579346536
24.315927138785;1291.0633721068912
24.378758991856795;1283.8285773448474
24.44159084492859;1257.8330678231348
24.504422698000386;1232.2061913765901
24.567254551072182;1334.2329661843623
24.630086404143977;1378.5289761470478
24.692918257215773;1404.172574950523
24.75575011028757;1382.0583368416262
24.818581963359364;1319.52984497233
24.881413816431163;1293.863119523573
24.94424566950296;1301.3062162293393
25.007077522574754;1280.1629511621984
25.06990937564655;1228.717593300053
25.132741228718345;1221.0596782257876
25.19557308179014;1325.171368088281
25.258404934861936;1224.464257479473
25.32123678793373;1193.4324550716433
25.384068641005527;1189.0461369565232
25.446900494077322;1128.2891052718971
25.50973234714912;1214.4165910913339
25.572564200220917;1171.3607877906304
25.635396053292713;1184.2276913921432
25.698227906364508;1155.6225301876952
25.761059759436304;1158.9857369774365
25.8238916125081;1240.4434666141074
25.886723465579895;1238.4375170809926
25.94955531865169;1182.4830187777352
26.012387171723486;1290.540788270079
26.075219024795285;1287.8075961938723
26.13805087786708;1274.8610174553717
26.200882730938876;1233.3710066405306
26.26371458401067;1179.0457404338529
26.326546437082467;1185.0295410286235
26.389378290154262;1092.964455439338
26.452210143226058;1114.037122390237
26.515041996297853;1119.8119277721494
26.57787384936965;1131.2688604778389
26.640705702441448;1176.7025598269545
26.70353755551324;1155.1627106927601
26.76636940858504;1136.847618919126
26.829201261656834;1153.7259260146163
26.89203311472863;1079.732692614246
26.954864967800425;1037.4319083891764
27.01769682087222;1042.645739172807
27.080528673944016;1116.5817799238328
27.143360527015812;1197.9716015535319
27.20619238008761;1225.5293886021707
27.269024233159403;1164.9494882029378
27.331856086231202;1109.6746235130993
27.394687939302994;1113.3163278489674
27.457519792374793;1223.3290771497361
27.52035164544659;1220.0009361528016
27.583183498518384;1204.7619876332492
27.64601535159018;1187.7929499254387
27.708847204661975;1201.8520752455418
27.771679057733774;1279.5356774944637
27.834510910805566;1277.5202847375308
27.897342763877365;1224.0758943598792
27.960174616949157;1132.887431516526
28.023006470020956;1125.5093349396332
28.085838323092748;1134.283754325984
28.148670176164547;1091.4621054574523
28.211502029236343;1047.9991003999348
28.274333882308138;998.7919753085705
28.337165735379937;979.6967499223497
28.39999758845173;992.0366819780025
28.462829441523528;999.4919370026383
28.52566129459532;1013.9106362749797
28.58849314766712;1061.7118383211553
28.65132500073891;989.5270198690395
28.71415685381071;945.2509200768696
28.776988706882502;992.0276199129345
28.8398205599543;1051.9475598718072
28.9026524130261;1029.7381558824366
28.965484266097892;950.6465305189838
29.02831611916969;958.9671928905299
29.091147972241483;979.7148750236905
29.153979825313282;963.9549592162489
29.216811678385074;922.1506196959944
29.279643531456873;896.2350389657786
29.342475384528665;950.5806205941202
29.405307237600464;968.6007068690827
29.468139090672256;960.6782707675825
29.530970943744055;1004.556636226086
29.593802796815854;939.3732459166599
29.656634649887646;846.5388063355826
29.719466502959445;859.1630318378934
29.782298356031237;984.2440627903908
29.845130209103036;1055.14148203131
29.90796206217483;1067.3470501429945
29.970793915246627;933.0807894642153
30.03362576831842;912.6319901751741
30.09645762139022;958.4144535509922
30.15928947446201;988.5156640056563
30.22212132753381;973.4838416636895
30.28495318060561;979.1187845548325
30.3477850336774;948.2768741407913
30.4106168867492;924.9435995685831
30.47344873982099;924.8444260305515
30.53628059289279;924.1435270542269
30.599112445964582;909.6081423981327
30.66194429903638;878.5013257827459
30.724776152108173;844.5763231657791
30.787608005179973;869.729784984674
30.85043985825177;869.8325870783766
30.913271711323564;905.5050452479004
30.976103564395363;891.646905618934
31.038935417467155;876.460885409928
31.101767270538954;880.8728751272431
31.164599123610746;878.5186008206272
31.227430976682545;919.2442672313732
31.290262829754337;892.6592542646046
31.353094682826136;902.4600788516457
31.415926535897928;901.2472696634564
31.478758388969727;892.6073588909167
31.541590242041526;889.9035521770204
31.604422095113318;854.5413510059562
31.667253948185117;792.6771115817431
31.73008580125691;865.7504935347638
31.792917654328708;902.9263956393945
31.8557495074005;886.9182776618433
31.9185813604723;886.0807057384976
31.98141321354409;913.6161357279541
32.04424506661589;886.0509551459679
32.107076919687685;869.5110755059535
32.169908772759484;827.2926640170961
32.232740625831276;808.6447815113937
32.295572478903075;813.1150818441457
32.35840433197487;835.6878639158298
32.421236185046666;796.7895420645169
32.484068038118465;806.637625414327
32.54689989119026;802.2900995681791
32.60973174426206;815.7545965314473
32.67256359733385;835.3195666478392
32.73539545040565;843.5943627722176
32.79822730347744;855.5652705077928
32.86105915654924;819.0201587690713
32.92389100962103;800.7348975268578
32.98672286269283;773.300391425159
33.04955471576463;783.5667188426888
33.11238656883642;772.475306394509
33.17521842190822;787.6548105361925
33.23805027498001;786.8449934845326
33.30088212805181;808.2132421182134
33.3637139811236;804.3034450862647
33.4265458341954;788.3586853847978
33.48937768726719;731.5063588449648
33.55220954033899;723.8860158077233
33.61504139341079;672.1749343328911
33.677873246482584;663.1557863190316
33.74070509955438;688.82297464594
33.803536952626175;776.5852694980239
33.866368805697974;740.9208894371139
33.929200658769766;681.2033113747967
33.992032511841565;657.4126934956723
