frequency;power spectrum
0.0;96648812.683
0.06283185307179587;67774807.98274373
0.12566370614359174;33601746.79052677
0.18849555921538758;16003460.89315732
0.25132741228718347;8304771.488879829
0.3141592653589793;4807337.971206627
0.37699111843077515;2942424.205856135
0.43982297150257105;1964023.7110927408
0.5026548245743669;1385524.3528180977
0.5654866776461628;996679.0084723339
0.6283185307179586;750622.5929981053
0.6911503837897545;596012.4539732671
0.7539822368615503;525100.1623584083
0.8168140899333463;476543.92787930614
0.8796459430051421;432669.18238539284
0.9424777960769378;378022.3384934052
1.0053096491487339;325666.04043814464
1.0681415022205298;262015.25781327355
1.1309733552923256;227749.54292870784
1.1938052083641213;225623.87809025103
1.2566370614359172;216251.12597905553
1.3194689145077132;196648.3056354571
1.382300767579509;186966.16424922078
1.4451326206513047;177316.98996886803
1.5079644737231006;161507.45914925932
1.5707963267948966;147778.01694442783
1.6336281798666925;137114.30669184486
1.6964600329384882;130313.36787415919
1.7592918860102842;125147.52694747395
1.8221237390820801;109810.24232160709
1.8849555921538756;104538.81828518426
1.9477874452256716;103310.24332758092
2.0106192982974678;99388.07905839945
2.0734511513692637;93847.89743462212
2.1362830044410597;86207.66454633305
2.199114857512855;80015.25226882372
2.261946710584651;77113.70007224327
2.324778563656447;74238.26132654682
2.3876104167282426;75872.75422171428
2.4504422698000385;73984.39998945483
2.5132741228718345;65780.06586293536
2.57610597594363;59021.47841685433
2.6389378290154264;56985.90415442746
2.701769682087222;55071.72323652389
2.764601535159018;56502.33048151234
2.827433388230814;53030.5689402484
2.8902652413026093;49269.26503642308
2.9530970943744057;48969.03845369389
3.015928947446201;47128.824486821395
3.078760800517997;46911.11063803117
3.141592653589793;46449.83713423572
3.204424506661589;44075.92099221705
3.267256359733385;40931.72621433146
3.330088212805181;38048.30253138303
3.3929200658769765;36382.84047044853
3.4557519189487724;38229.010095437916
3.5185837720205684;39823.430902409826
3.581415625092364;39901.09221031796
3.6442474781641603;38243.62259661161
3.707079331235956;35089.53469144222
3.7699111843077513;34821.52659685186
3.8327430373795477;33261.277683202745
3.895574890451343;30272.656187036628
3.9584067435231396;28627.76795581176
4.0212385965949355;28473.23761493248
4.084070449666731;29201.730414322297
4.1469023027385274;29923.435885274735
4.209734155810323;29323.24096743155
4.272566008882119;29582.152590947593
4.335397861953915;27343.651148823577
4.39822971502571;24613.769834966148
4.461061568097507;25704.017531482128
4.523893421169302;25228.062921102148
4.586725274241098;23530.422962755227
4.649557127312894;23647.206796241637
4.71238898038469;22792.691997746893
4.775220833456485;23324.391227541084
4.838052686528282;22687.847284969204
4.900884539600077;21611.942522778976
4.9637163926718735;21008.580478916163
5.026548245743669;21173.04892653228
5.0893800988154645;22022.527686408997
5.15221195188726;20727.62484430425
5.215043804959057;20158.384381844022
5.277875658030853;19329.623490056303
5.340707511102648;19636.508158335906
5.403539364174444;19057.38135439713
5.466371217246239;19226.796206092647
5.529203070318036;18492.025754883118
5.592034923389832;17716.559786506554
5.654866776461628;17351.647804162225
5.717698629533423;16838.731373295737
5.780530482605219;16767.37995266454
5.843362335677015;15650.428385288982
5.906194188748811;14550.548860789004
5.969026041820607;15194.855727840204
6.031857894892402;15647.521181547801
6.094689747964199;16601.389618519308
6.157521601035994;16003.027110702556
6.220353454107791;14789.768952576322
6.283185307179586;14304.12502573788
6.346017160251382;14532.536541996875
6.408849013323178;15066.657850254811
6.471680866394974;14976.310706327793
6.53451271946677;13858.716553002068
6.5973445725385655;12594.816971867558
6.660176425610362;12636.934768102858
6.7230082786821574;12997.126322375982
6.785840131753953;12883.610056815363
6.8486719848257485;12665.330545481369
6.911503837897545;12522.466981826617
6.974335690969341;12453.243930774395
7.037167544041137;11585.196613996859
7.099999397112932;11035.816755342948
7.162831250184728;11255.31755959826
7.225663103256525;12122.545483519389
7.288494956328321;12836.240665726405
7.351326809400116;12472.810858179839
7.414158662471912;11280.315800309188
7.476990515543707;10637.304941986504
7.539822368615503;10375.441074534421
7.6026542216873;10324.610726079662
7.665486074759095;10112.001527336211
7.728317927830891;10359.33051165933
7.791149780902686;10968.399869548324
7.853981633974482;10427.024979292864
7.916813487046279;10280.649932035425
7.979645340118075;10100.744754482792
8.042477193189871;9765.990290651927
8.105309046261667;9478.39598050603
8.168140899333462;9397.73188423281
8.230972752405258;9210.306550556623
8.293804605477055;8792.968260722624
8.35663645854885;9023.704829347187
8.419468311620646;9077.126521909619
8.482300164692441;8759.640511953725
8.545132017764239;8640.473737999266
8.607963870836034;8193.3485429785
8.67079572390783;7947.88828478812
8.733627576979625;8200.959819900818
8.79645943005142;8703.440416871412
8.859291283123216;8553.091161672346
8.922123136195014;7862.061716776332
8.984954989266809;7900.33834503092
9.047786842338605;7601.622988919429
9.1106186954104;7331.228814208915
9.173450548482196;8019.718552752469
9.236282401553993;7968.761790188283
9.299114254625788;7871.528145459406
9.361946107697584;7845.153444187544
9.42477796076938;7694.5219273899975
9.487609813841175;7731.108451284415
9.55044166691297;7912.710211595699
9.613273519984768;7678.65507005548
9.676105373056563;7473.267592365256
9.738937226128359;7305.107348177112
9.801769079200154;7181.797710494579
9.86460093227195;6530.179451052918
9.927432785343747;6118.507428977586
9.990264638415542;6193.77700584225
10.053096491487338;6830.983289191739
10.115928344559133;7128.644719303604
10.178760197630929;7162.775795167029
10.241592050702724;6994.983233211173
10.30442390377452;7048.035099729929
10.367255756846316;6724.516463948405
10.430087609918115;6620.348381537783
10.49291946298991;6636.252062896119
10.555751316061706;6775.52415944679
10.618583169133501;6501.96052035619
10.681415022205297;6299.5480848958505
10.744246875277092;6161.380153116896
10.807078728348888;5905.269590991014
10.869910581420683;5796.14731109068
10.932742434492479;6220.985278231745
10.995574287564274;6223.78948128264
11.058406140636071;5964.392555376766
11.121237993707869;5921.691866969824
11.184069846779664;5917.131388653055
11.24690169985146;5798.415350888328
11.309733552923255;5832.8357291979755
11.37256540599505;5656.225474792412
11.435397259066846;5661.660332081634
11.498229112138642;5527.870548208025
11.561060965210437;5621.873958477603
11.623892818282235;5588.033398590898
11.68672467135403;5619.062594437187
11.749556524425827;5623.069730202768
11.812388377497623;5581.135787462201
11.875220230569418;5256.665294389112
11.938052083641214;4729.226671019904
12.00088393671301;4744.474406351536
12.063715789784805;4915.792693000282
12.1265476428566;4946.107362996194
12.189379495928398;5221.161941415118
12.252211349000193;5261.498689995728
12.315043202071989;5565.442022669646
12.377875055143784;5471.560877152524
12.440706908215581;5225.106808737268
12.503538761287377;4872.28538250729
12.566370614359172;4904.554561686464
12.629202467430968;5107.574069706968
12.692034320502763;5266.931613805934
12.75486617357456;5136.506440607182
12.817698026646356;4905.503679094638
12.880529879718152;4695.792743987651
12.943361732789947;4800.0558880719
13.006193585861743;4746.532282814196
13.06902543893354;4469.052086069631
13.131857292005336;4267.625409467819
13.194689145077131;4281.36648284838
13.257520998148927;4579.622488955313
13.320352851220724;4709.1339775516235
13.38318470429252;4516.721640634963
13.446016557364315;4427.353081685132
13.50884841043611;4057.075293463575
13.571680263507906;3958.202910920581
13.634512116579701;4115.826557336972
13.697343969651497;4246.436770202804
13.760175822723294;4170.491630653815
13.82300767579509;4179.003385720462
13.885839528866887;3806.02119765097
13.948671381938683;3695.4050491635617
14.011503235010478;3804.3839685074468
14.074335088082274;4016.1053051518957
14.137166941154069;3857.358435342054
14.199998794225865;4084.061
14.26283064729766;4176.133929420256
14.325662500369456;4040.325276032844
14.388494353441251;4047.9211775537187
14.45132620651305;4166.258258022629
14.514158059584846;4017.419242023253
14.576989912656641;3874.897162825745
14.639821765728437;3981.3844297953024
14.702653618800232;4164.793813107382
14.765485471872028;3989.785999075904
14.828317324943823;3865.8208361181773
14.891149178015619;4099.306425995178
14.953981031087414;4541.399661765437
15.01681288415921;4345.974541334396
15.079644737231005;3920.7162001358533
15.142476590302804;3688.3955667573914
15.2053084433746;3638.76091210118
15.268140296446395;3657.0359909234126
15.33097214951819;3601.199165542459
15.393804002589986;3603.2455873750605
15.456635855661782;3633.6529846021526
15.519467708733577;3682.0368081193587
15.582299561805373;3760.221716673059
15.645131414877168;3686.7862717317535
15.707963267948964;3584.2322381765784
15.770795121020763;3464.8561521453
15.833626974092558;3369.2800449512683
15.896458827164354;3506.7366847258454
15.95929068023615;3284.56333739429
16.022122533307947;3099.650616978242
16.084954386379742;3096.8047671439963
16.147786239451538;3236.626501191382
16.210618092523333;3181.9172565855097
16.27344994559513;3021.2701398494214
16.336281798666924;2967.5529472323665
16.39911365173872;2945.793016365769
16.461945504810515;3005.867833418032
16.524777357882314;3096.514864734381
16.58760921095411;3219.6168382848664
16.650441064025905;3165.581057179511
16.7132729170977;3098.3654971574706
16.776104770169496;3146.287346578767
16.838936623241292;3159.873592386764
16.901768476313087;3094.2691841411806
16.964600329384883;3005.063863792187
17.02743218245668;3030.844970028771
17.090264035528477;3159.57797117041
17.153095888600273;3116.833127242471
17.21592774167207;3159.7688963586966
17.278759594743864;3097.6107255263214
17.34159144781566;3068.4883967747746
17.404423300887455;3021.2151485566524
17.46725515395925;2991.4416064361044
17.530087007031046;3017.7432507223443
17.59291886010284;3019.5977249485704
17.655750713174637;2842.5407711938747
17.718582566246432;2947.9111701097518
17.78141441931823;2941.04398590571
17.844246272390027;2947.2390640135877
17.907078125461823;2857.338829424457
17.969909978533618;2887.2229613252075
18.032741831605414;2734.746231676805
18.09557368467721;2756.129709964286
18.158405537749005;2771.6280859502267
18.2212373908208;2662.5996782285565
18.284069243892596;2593.0929972039103
18.34690109696439;2655.4954893782315
18.409732950036187;2830.8805347843036
18.472564803107986;2726.124159366774
18.53539665617978;2682.414581902651
18.598228509251577;2636.0138126312536
18.661060362323372;2689.1849338260217
18.723892215395168;2669.608365657713
18.786724068466963;2602.766432448461
18.84955592153876;2735.2295240735234
18.912387774610554;2692.33759818127
18.97521962768235;2672.8394411455456
19.038051480754145;2720.865563507779
19.10088333382594;2871.7338001512385
19.16371518689774;2852.4286435082354
19.226547039969535;2670.9204481937577
19.28937889304133;2541.4726060589323
19.352210746113126;2512.168401686086
19.415042599184922;2667.0033190320187
19.477874452256717;2746.5444912045905
19.540706305328513;2674.3082351862336
19.60353815840031;2602.7862308697318
19.666370011472104;2521.493227638215
19.7292018645439;2365.8239159152067
19.7920337176157;2626.3525193742207
19.854865570687494;2655.109787703843
19.91769742375929;2622.3076585403132
19.980529276831085;2528.1328124177935
20.04336112990288;2523.5340895171375
20.106192982974676;2546.8874684406
20.16902483604647;2652.3451528113296
20.231856689118267;2576.418138852946
20.294688542190062;2548.212444002658
20.357520395261858;2523.302107834579
20.420352248333653;2477.3041877561645
20.48318410140545;2277.1568365600456
20.546015954477248;2143.7467128832855
20.60884780754904;2170.3825523403198
20.67167966062084;2205.480047303288
20.73451151369263;2237.626253870356
20.79734336676443;2134.3667966623493
20.86017521983623;2106.926786747537
20.92300707290802;2114.8230724125474
20.98583892597982;2100.3827017567987
21.048670779051612;2141.607795314442
21.11150263212341;2184.8387099023507
21.174334485195203;2365.7895795378095
21.237166338267002;2340.8640700846286
21.299998191338794;2430.899
21.362830044410593;2348.5709581347996
21.425661897482385;2123.3942736352046
21.488493750554184;2034.0860693605944
21.551325603625983;2217.394113190716
21.614157456697775;2174.1146098933677
21.676989309769574;2168.6062352551107
21.739821162841366;2077.2884214915675
21.802653015913165;2134.9622236670484
21.865484868984957;2266.462894696899
21.928316722056756;2297.445286052897
21.99114857512855;2247.3628923648034
22.053980428200347;2188.4561869088748
22.116812281272143;2255.3458001355643
22.17964413434394;2149.3230824499433
22.242475987415737;2171.6087004962633
22.30530784048753;2182.205131146156
22.36813969355933;2109.4122747225797
22.43097154663112;2009.715789384435
22.49380339970292;2035.1262393168684
22.55663525277471;2017.8515738829556
22.61946710584651;2084.196407690537
22.682298958918306;1916.3880303733918
22.7451308119901;1977.0570771588466
22.8079626650619;2109.2965006921786
22.870794518133692;2113.9213285836454
22.93362637120549;2065.0863421608033
22.996458224277283;2057.9965780627454
23.059290077349083;2194.896300350365
23.122121930420874;2186.2977954873363
23.184953783492674;2137.728769262722
23.24778563656447;2091.858041297877
23.310617489636265;2039.2043423984107
23.37344934270806;1933.2473651707803
23.436281195779856;1874.5611367157612
23.499113048851655;1871.6536291416362
23.561944901923447;1890.1718346890536
23.624776754995246;1911.6556333913154
23.687608608067038;1871.5003458721835
23.750440461138837;1813.0336311484339
23.813272314210632;1909.5110299738585
23.876104167282428;1939.164628478158
23.938936020354223;1851.7504283386588
24.00176787342602;1828.6818187412089
24.064599726497814;1954.6094532793254
24.12743157956961;2042.5110093770706
24.19026343264141;2017.0192445994646
24.2530952857132;1983.9696051322067
24.315927138785;1977.8084708346253
24.378758991856795;1921.7107699612664
24.44159084492859;1813.0398843086568
24.504422698000386;1800.9897264835006
24.567254551072182;1800.3894866366886
24.630086404143977;1843.8946786900185
24.692918257215773;1844.5548096475472
24.75575011028757;1791.1693524134591
24.818581963359364;1793.0577910334828
24.881413816431163;1818.0248527472768
24.94424566950296;1834.880672325292
25.007077522574754;1726.5052227930378
25.06990937564655;1711.7187852841914
25.132741228718345;1693.9401287196104
25.19557308179014;1720.4564636450916
25.258404934861936;1758.1568839895049
25.32123678793373;1808.1692165816432
25.384068641005527;1816.6575152224589
25.446900494077322;1711.2063701649627
25.50973234714912;1695.4708313446426
25.572564200220917;1692.2070299410998
25.635396053292713;1784.5305635986579
25.698227906364508;1873.8386979433317
25.761059759436304;1858.6793775071642
25.8238916125081;1771.4992187754588
25.886723465579895;1774.733074472749
25.94955531865169;1710.2359288026487
26.012387171723486;1703.7770679048765
26.075219024795285;1629.339328404883
26.13805087786708;1515.697777150419
26.200882730938876;1519.5722254989926
26.26371458401067;1519.928934571808
26.326546437082467;1545.180526367936
26.389378290154262;1571.418366716382
26.452210143226058;1623.1611157758382
26.515041996297853;1678.0014177778385
26.57787384936965;1655.9838938888536
26.640705702441448;1628.2313925238807
26.70353755551324;1674.7170293186596
26.76636940858504;1697.529121740145
26.829201261656834;1737.1115970317042
26.89203311472863;1747.3159157237867
26.954864967800425;1798.062264607896
27.01769682087222;1754.345432341179
27.080528673944016;1732.1913348520527
27.143360527015812;1698.5126769125318
27.20619238008761;1597.5527219447022
27.269024233159403;1593.3901996532925
27.331856086231202;1619.3700214148735
27.394687939302994;1576.7221319427708
27.457519792374793;1595.0377896213754
27.52035164544659;1605.4318845706398
27.583183498518384;1619.5340147285153
27.64601535159018;1735.1654016536593
27.708847204661975;1656.4560196721873
27.771679057733774;1532.2126520044872
27.834510910805566;1549.1372661291578
27.897342763877365;1592.0258287806228
27.960174616949157;1611.3609210207721
28.023006470020956;1549.8975843431977
28.085838323092748;1538.0539534184884
28.148670176164547;1578.00504474474
28.211502029236343;1492.8192605420531
28.274333882308138;1448.1467267899334
28.337165735379937;1493.3188994522664
28.39999758845173;1530.055
28.462829441523528;1561.2600381756724
28.52566129459532;1564.2301775688754
28.58849314766712;1479.5363260003148
28.65132500073891;1442.743890426215
28.71415685381071;1421.6106542407747
28.776988706882502;1396.815322243535
28.8398205599543;1433.8855916017128
28.9026524130261;1449.856804119904
28.965484266097892;1539.5229006369962
29.02831611916969;1470.3700665637537
29.091147972241483;1390.3828302965303
29.153979825313282;1401.5211863653549
29.216811678385074;1447.8514930550741
29.279643531456873;1444.0457333034458
29.342475384528665;1428.490372176213
29.405307237600464;1477.8469251370432
29.468139090672256;1475.6409927710642
29.530970943744055;1471.4090243295768
29.593802796815854;1471.1044026081843
29.656634649887646;1495.1767945192485
29.719466502959445;1518.81955931246
29.782298356031237;1495.9949630499443
29.845130209103036;1509.8354102356052
29.90796206217483;1485.4776547720699
29.970793915246627;1445.9263400276407
30.03362576831842;1428.2182299925373
30.09645762139022;1399.8796118144112
30.15928947446201;1384.9484898545954
30.22212132753381;1370.5481754626296
30.28495318060561;1359.804030620313
30.3477850336774;1400.44130767791
30.4106168867492;1385.7508742481912
30.47344873982099;1345.5577281275127
30.53628059289279;1419.543796669228
30.599112445964582;1386.9560350397749
30.66194429903638;1310.5060317931561
30.724776152108173;1235.0728122239168
30.787608005179973;1235.5111725506672
30.85043985825177;1248.674312802101
30.913271711323564;1282.2370825884695
30.976103564395363;1369.751593603195
31.038935417467155;1383.622543516556
31.101767270538954;1335.4272848541311
31.164599123610746;1273.917471848003
31.227430976682545;1235.3608391756513
31.290262829754337;1176.651117039156
31.353094682826136;1193.9408298823582
31.415926535897928;1312.8507631519572
31.478758388969727;1446.983822620963
31.541590242041526;1396.0830698807208
31.604422095113318;1334.1249878905053
31.667253948185117;1280.3856403810537
31.73008580125691;1292.8181296944608
31.792917654328708;1292.0589879228871
31.8557495074005;1263.2378992974222
31.9185813604723;1266.331724628155
31.98141321354409;1260.5024799912549
32.04424506661589;1188.38540525655
32.107076919687685;1161.716313883024
32.169908772759484;1168.6595098031694
32.232740625831276;1193.2602062351405
32.295572478903075;1180.8439263783878
32.35840433197487;1204.0172088453573
32.421236185046666;1173.674014520028
32.484068038118465;1134.8442281125008
32.54689989119026;1109.1478412173672
32.60973174426206;1111.6436546061354
32.67256359733385;1145.412535345089
32.73539545040565;1161.4931241322101
32.79822730347744;1171.4108619345932
32.86105915654924;1165.9919615184715
32.92389100962103;1160.9906556716464
32.98672286269283;1179.0164975747523
33.04955471576463;1154.11523724209
33.11238656883642;1130.5212157094138
33.17521842190822;1159.9195279409657
33.23805027498001;1253.4123653690463
33.30088212805181;1323.5657364824913
33.3637139811236;1288.9620231257006
33.4265458341954;1283.5731757389024
33.48937768726719;1312.0659928846017
33.55220954033899;1309.2797498072614
33.61504139341079;1369.2379779437551
33.677873246482584;1312.6846322550243
33.74070509955438;1282.2866328398247
33.803536952626175;1274.9173681540435
33.866368805697974;1199.2498787080547
