frequency;power spectrum
0.0;96648812.683
0.06283185307179587;67646762.84601697
0.12566370614359174;33248427.414627817
0.18849555921538758;15596357.002897976
0.25132741228718347;8046459.006286224
0.3141592653589793;4683735.2177511295
0.37699111843077515;2868927.8106577867
0.43982297150257105;1832946.0972193666
0.5026548245743669;1243728.4739804866
0.5654866776461628;931672.5929260983
0.6283185307179586;733865.2670164695
0.6911503837897545;582992.2785411065
0.7539822368615503;492291.24190883094
0.8168140899333463;429133.4123441456
0.8796459430051421;393081.3377113544
0.9424777960769378;357062.26040517614
1.0053096491487339;325469.03471172316
1.0681415022205298;287775.8457665678
1.1309733552923256;257291.08365744838
1.1938052083641213;244099.0880703547
1.2566370614359172;219593.12891057343
1.3194689145077132;197490.99841586134
1.382300767579509;190591.43100247817
1.4451326206513047;178613.98961045485
1.5079644737231006;151638.666561582
1.5707963267948966;138045.98556379988
1.6336281798666925;133550.28383194597
1.6964600329384882;128002.56625994793
1.7592918860102842;123055.8821699497
1.8221237390820801;105074.28590966309
1.8849555921538756;104651.45163242174
1.9477874452256716;103595.6517855332
2.0106192982974678;101185.46832169768
2.0734511513692637;93827.30030677789
2.1362830044410597;83787.58799751088
2.199114857512855;76251.5227903202
2.261946710584651;71807.42198023312
2.324778563656447;69292.81360210646
2.3876104167282426;73078.30131501859
2.4504422698000385;73835.1522716401
2.5132741228718345;71284.8657084
2.57610597594363;68159.99289089936
2.6389378290154264;62329.944807048356
2.701769682087222;58652.56386418355
2.764601535159018;57674.629907181166
2.827433388230814;53143.83072284775
2.8902652413026093;47837.273044213376
2.9530970943744057;47307.72305966694
3.015928947446201;46366.16814626426
3.078760800517997;46013.08567225103
3.141592653589793;45934.00921022885
3.204424506661589;42321.96255490821
3.267256359733385;39481.98743085712
3.330088212805181;38271.00306475464
3.3929200658769765;36115.98543141269
3.4557519189487724;36797.11906054904
3.5185837720205684;38495.97980313065
3.581415625092364;39920.09382845916
3.6442474781641603;37736.231859342886
3.707079331235956;35382.96114014272
3.7699111843077513;35137.66500211626
3.8327430373795477;33004.70682236683
3.895574890451343;29373.615174681476
3.9584067435231396;28791.188152821807
4.0212385965949355;29835.05870649189
4.084070449666731;29381.99782617155
4.1469023027385274;28925.932733188438
4.209734155810323;28252.050193692347
4.272566008882119;28329.38656385964
4.335397861953915;27519.5296520437
4.39822971502571;26111.794655106733
4.461061568097507;26607.28030432906
4.523893421169302;26164.201763007008
4.586725274241098;24258.96498178693
4.649557127312894;23495.489000779256
4.71238898038469;22484.371849405557
4.775220833456485;22724.113771666056
4.838052686528282;21675.769683498318
4.900884539600077;20734.200624484194
4.9637163926718735;20201.706440082147
5.026548245743669;20086.630449955064
5.0893800988154645;20642.031688758467
5.15221195188726;20633.63522090045
5.215043804959057;20256.474863101026
5.277875658030853;20076.069498248657
5.340707511102648;20153.657192923616
5.403539364174444;19151.03547408191
5.466371217246239;18299.48170206536
5.529203070318036;17898.54916554584
5.592034923389832;17507.207346367206
5.654866776461628;17949.981068359408
5.717698629533423;18141.376533004823
5.780530482605219;17330.743830930045
5.843362335677015;16297.283843180117
5.906194188748811;15009.080574394487
5.969026041820607;15148.217821455315
6.031857894892402;15231.20186778924
6.094689747964199;16390.053128415035
6.157521601035994;15971.052093109547
6.220353454107791;15008.625394759149
6.283185307179586;14250.565392191887
6.346017160251382;14125.227690485197
6.408849013323178;14399.847156763639
6.471680866394974;14962.901711686147
6.53451271946677;13940.009805174599
6.5973445725385655;12598.204340371787
6.660176425610362;12253.788453605111
6.7230082786821574;12099.133573244564
6.785840131753953;12025.058333908975
6.8486719848257485;12501.945660241481
6.911503837897545;12176.711511420555
6.974335690969341;12561.567762850373
7.037167544041137;12038.976049328428
7.099999397112932;11605.484547048052
7.162831250184728;11399.279629041543
7.225663103256525;11863.269656336752
7.288494956328321;13219.057373114758
7.351326809400116;12719.537556134372
7.414158662471912;11223.962151120559
7.476990515543707;10900.313904392202
7.539822368615503;10909.28641165772
7.6026542216873;10596.722329985994
7.665486074759095;10522.747146206342
7.728317927830891;11279.298281775405
7.791149780902686;11685.37226399586
7.853981633974482;11250.771202237169
7.916813487046279;10919.184552128505
7.979645340118075;10420.027542980311
8.042477193189871;10000.543402401883
8.105309046261667;10135.259283058864
8.168140899333462;10190.120260033042
8.230972752405258;10478.131042498042
8.293804605477055;9881.24949069656
8.35663645854885;9373.919312441501
8.419468311620646;9342.137808367526
8.482300164692441;9032.233773325192
8.545132017764239;9368.568820107228
8.607963870836034;8557.277851475523
8.67079572390783;7871.722490906451
8.733627576979625;8319.942111887685
8.79645943005142;8490.518924808186
8.859291283123216;8351.812550489265
8.922123136195014;7779.676115074391
8.984954989266809;7689.957732038757
9.047786842338605;7857.102852067073
9.1106186954104;7811.823648072596
9.173450548482196;7817.463278546033
9.236282401553993;8293.377872031735
9.299114254625788;8516.135717260637
9.361946107697584;8254.38353659973
9.42477796076938;7466.931442381229
9.487609813841175;7368.263087360085
9.55044166691297;7667.607819432404
9.613273519984768;7452.383384210947
9.676105373056563;7531.866544090935
9.738937226128359;7467.576022637353
9.801769079200154;7529.753168890602
9.86460093227195;6878.225099707471
9.927432785343747;6122.0498964322915
9.990264638415542;6044.426806415987
10.053096491487338;6383.083052762249
10.115928344559133;6897.116010273799
10.178760197630929;7424.203999184531
10.241592050702724;7000.330776415511
10.30442390377452;6931.985976663364
10.367255756846316;6499.300854077348
10.430087609918115;6514.651081384292
10.49291946298991;6602.070268061343
10.555751316061706;6813.519424711932
10.618583169133501;6769.789653367679
10.681415022205297;6555.858314353559
10.744246875277092;6453.6442058907505
10.807078728348888;6160.361945804684
10.869910581420683;6037.7257439774185
10.932742434492479;6067.893356553047
10.995574287564274;6207.948354307376
11.058406140636071;6174.349543701058
11.121237993707869;5999.629606640578
11.184069846779664;6062.447628958591
11.24690169985146;5646.83815280233
11.309733552923255;5845.081302457642
11.37256540599505;5910.1198223840265
11.435397259066846;6056.886018388706
11.498229112138642;5944.789830770567
11.561060965210437;5778.183458960322
11.623892818282235;5625.396998139715
11.68672467135403;5308.656566744207
11.749556524425827;4952.427781644996
11.812388377497623;4975.148722959619
11.875220230569418;5047.047657576045
11.938052083641214;4677.18563847931
12.00088393671301;4599.908984484858
12.063715789784805;4863.938120150008
12.1265476428566;4955.157050124383
12.189379495928398;5186.044891596376
12.252211349000193;5198.687691283941
12.315043202071989;5304.582891220917
12.377875055143784;5294.6285698091415
12.440706908215581;5173.292511820068
12.503538761287377;5149.039342187401
12.566370614359172;5277.45308351345
12.629202467430968;5449.521316371849
12.692034320502763;5357.067423984509
12.75486617357456;5002.3504853600325
12.817698026646356;4904.459503716501
12.880529879718152;4986.759034774798
12.943361732789947;4917.285973630005
13.006193585861743;4624.834220103407
13.06902543893354;4587.7478521601515
13.131857292005336;4599.340577844426
13.194689145077131;4616.320461420078
13.257520998148927;4541.79082612688
13.320352851220724;4687.063325649867
13.38318470429252;4633.7495399349245
13.446016557364315;4436.476146560489
13.50884841043611;4463.598125577733
13.571680263507906;4196.684674322902
13.634512116579701;4206.7623654344925
13.697343969651497;4163.989451645829
13.760175822723294;4164.441632238581
13.82300767579509;4171.265339760356
13.885839528866887;3824.7183221428404
13.948671381938683;3642.485697300185
14.011503235010478;3750.1585131411243
14.074335088082274;3834.096803700327
14.137166941154069;3630.288521061226
14.199998794225865;3791.521
14.26283064729766;3996.5393744106173
14.325662500369456;3885.004663529686
14.388494353441251;4019.1269508529394
14.45132620651305;4213.348600617682
14.514158059584846;4091.0753118775165
14.576989912656641;3978.5375014244064
14.639821765728437;3942.1826813775883
14.702653618800232;4137.030868646449
14.765485471872028;4154.645783548772
14.828317324943823;4155.298056223253
14.891149178015619;4030.7567491075
14.953981031087414;4126.375835088553
15.01681288415921;4052.8718935402317
15.079644737231005;3856.4190050193565
15.142476590302804;3843.5433079048125
15.2053084433746;3899.665781433154
15.268140296446395;3832.6516479742104
15.33097214951819;3803.59982142282
15.393804002589986;3796.0148967732084
15.456635855661782;3816.293385874766
15.519467708733577;3719.525495851433
15.582299561805373;3837.425888769004
15.645131414877168;3941.993023445518
15.707963267948964;3709.7578129224876
15.770795121020763;3327.1260837390987
15.833626974092558;3190.1053133681216
15.896458827164354;3199.0875377669663
15.95929068023615;3096.051343725588
16.022122533307947;3061.7948848022306
16.084954386379742;3137.2761970726315
16.147786239451538;3287.9815407428105
16.210618092523333;3230.2745235974785
16.27344994559513;2951.3478673163727
16.336281798666924;2943.0399019657298
16.39911365173872;3018.4685922484637
16.461945504810515;3127.641273780808
16.524777357882314;3120.9727458596662
16.58760921095411;3005.9511964318044
16.650441064025905;2965.9446516690828
16.7132729170977;3027.232110298073
16.776104770169496;2962.002548479677
16.838936623241292;2881.167218579819
16.901768476313087;2909.8577761326237
16.964600329384883;2993.7120346372103
17.02743218245668;3032.85594318084
17.090264035528477;3165.538152173657
17.153095888600273;3038.527643470295
17.21592774167207;2890.9857773029485
17.278759594743864;2771.6831606855512
17.34159144781566;2857.0889049038997
17.404423300887455;3022.629380969045
17.46725515395925;3137.6949231631675
17.530087007031046;3147.341384677913
17.59291886010284;3087.17878776752
17.655750713174637;2923.570499345632
17.718582566246432;2793.555683842413
17.78141441931823;2799.9301732235776
17.844246272390027;2909.7053701601712
17.907078125461823;2858.62221214858
17.969909978533618;2942.9424370308234
18.032741831605414;3003.1026152218537
18.09557368467721;2907.0707244009172
18.158405537749005;2762.6435942931294
18.2212373908208;2688.3650174096347
18.284069243892596;2686.8795147672654
18.34690109696439;2453.781129097867
18.409732950036187;2585.97339197682
18.472564803107986;2642.6722442223418
18.53539665617978;2793.4954016576166
18.598228509251577;2736.350446984875
18.661060362323372;2702.7177240626784
18.723892215395168;2662.6453583082525
18.786724068466963;2610.5154227655594
18.84955592153876;2771.579367676786
18.912387774610554;2799.5621943880196
18.97521962768235;2756.681876048995
19.038051480754145;2765.938766839189
19.10088333382594;2729.266873488215
19.16371518689774;2878.586579523979
19.226547039969535;2638.9598603719487
19.28937889304133;2569.5335724716692
19.352210746113126;2487.563888692565
19.415042599184922;2649.435456262478
19.477874452256717;2665.165118118782
19.540706305328513;2526.82475465909
19.60353815840031;2527.039089080277
19.666370011472104;2542.362710910233
19.7292018645439;2402.1395080083953
19.7920337176157;2709.7530068929195
19.854865570687494;2780.1620354181287
19.91769742375929;2654.048164944373
19.980529276831085;2591.1143131566523
20.04336112990288;2549.056190788078
20.106192982974676;2568.912081170609
20.16902483604647;2547.477788846797
20.231856689118267;2479.5753267661194
20.294688542190062;2520.6541763225437
20.357520395261858;2511.018042534698
20.420352248333653;2491.0797310134294
20.48318410140545;2299.20746104898
20.546015954477248;2153.8730310748415
20.60884780754904;2143.292566216917
20.67167966062084;2152.4884991922545
20.73451151369263;2230.372490614242
20.79734336676443;2164.1207938265093
20.86017521983623;1976.623235821315
20.92300707290802;2135.509248151732
20.98583892597982;2183.1153602259474
21.048670779051612;2250.939823360133
21.11150263212341;2250.259204585667
21.174334485195203;2322.2933459122587
21.237166338267002;2268.4889774271437
21.299998191338794;2327.579
21.362830044410593;2282.6707970957127
21.425661897482385;2120.0023921231696
21.488493750554184;2161.6689861721443
21.551325603625983;2218.0135078145154
21.614157456697775;2190.8483805543065
21.676989309769574;2208.4063439322877
21.739821162841366;2318.97258665081
21.802653015913165;2392.4702950220144
21.865484868984957;2464.3787530393906
21.928316722056756;2460.59115243455
21.99114857512855;2278.336472357403
22.053980428200347;2135.2540846004513
22.116812281272143;2106.599143333978
22.17964413434394;2026.1856918695942
22.242475987415737;2060.538327676738
22.30530784048753;2096.899001890141
22.36813969355933;2070.6434124422813
22.43097154663112;1958.9949052793716
22.49380339970292;2032.4324269330616
22.55663525277471;2075.7413492716596
22.61946710584651;2143.1197466696494
22.682298958918306;2067.0371900292057
22.7451308119901;2086.3670062244814
22.8079626650619;2117.2398322743256
22.870794518133692;2038.627412921922
22.93362637120549;2083.616407977686
22.996458224277283;2183.898309704611
23.059290077349083;2239.197072931619
23.122121930420874;2174.816620061485
23.184953783492674;2137.157248727295
23.24778563656447;2036.0348230652066
23.310617489636265;1934.0896230303238
23.37344934270806;1803.9448698333588
23.436281195779856;1799.3967895929509
23.499113048851655;1893.3007139963959
23.561944901923447;1873.6083030717105
23.624776754995246;1949.1846201177973
23.687608608067038;1998.3255969968611
23.750440461138837;1887.716971282302
23.813272314210632;1900.0903388871611
23.876104167282428;1998.0022278492386
23.938936020354223;1953.0109778160702
24.00176787342602;1897.3018402159285
24.064599726497814;2013.1525775362195
24.12743157956961;2058.557501340523
24.19026343264141;1889.1330481613968
24.2530952857132;1836.5236567266722
24.315927138785;1867.932652918432
24.378758991856795;1861.1692532883028
24.44159084492859;1764.9967987302048
24.504422698000386;1782.6444818023203
24.567254551072182;1836.117176923029
24.630086404143977;1931.5588921705505
24.692918257215773;1940.587370973956
24.75575011028757;1876.772498134352
24.818581963359364;1793.9461704075031
24.881413816431163;1745.1680376763964
24.94424566950296;1760.041799908081
25.007077522574754;1714.1964746999743
25.06990937564655;1683.3741435914733
25.132741228718345;1734.1737867694624
25.19557308179014;1740.2196070152627
25.258404934861936;1731.3076272413957
25.32123678793373;1728.1689616298609
25.384068641005527;1737.3779101760551
25.446900494077322;1691.578847427843
25.50973234714912;1735.8795535668044
25.572564200220917;1782.5321894269543
25.635396053292713;1793.1714989055688
25.698227906364508;1763.362678630557
25.761059759436304;1737.090751309021
25.8238916125081;1724.165900274558
25.886723465579895;1754.6022861324855
25.94955531865169;1762.7718458729994
26.012387171723486;1697.2928757737723
26.075219024795285;1611.8278843168027
26.13805087786708;1480.6926945423033
26.200882730938876;1479.4983706786666
26.26371458401067;1483.7684156667203
26.326546437082467;1609.8199901003366
26.389378290154262;1728.0756910280982
26.452210143226058;1738.7769846258063
26.515041996297853;1743.7826382595288
26.57787384936965;1667.107783388593
26.640705702441448;1623.2325622403018
26.70353755551324;1611.778246253242
26.76636940858504;1621.9404368715022
26.829201261656834;1701.185527463451
26.89203311472863;1722.6910772047308
26.954864967800425;1735.5770341595357
27.01769682087222;1708.6361272459221
27.080528673944016;1751.320945367785
27.143360527015812;1691.6720483495787
27.20619238008761;1717.320670445261
27.269024233159403;1686.7435995647527
27.331856086231202;1656.3578928541172
27.394687939302994;1681.3309077522642
27.457519792374793;1643.674994249792
27.52035164544659;1672.0230809545053
27.583183498518384;1601.1085645536564
27.64601535159018;1607.9176785811715
27.708847204661975;1546.5289467581413
27.771679057733774;1479.1423221330717
27.834510910805566;1531.5158730040318
27.897342763877365;1539.59929125027
27.960174616949157;1496.9875443843985
28.023006470020956;1535.0814520438544
28.085838323092748;1512.2029572543524
28.148670176164547;1521.926245614943
28.211502029236343;1426.2801660592427
28.274333882308138;1440.821957228359
28.337165735379937;1507.432220242077
28.39999758845173;1552.171
28.462829441523528;1605.1555427472788
28.52566129459532;1579.270434270078
28.58849314766712;1462.3559872813216
28.65132500073891;1433.100545195208
28.71415685381071;1458.8750144435319
28.776988706882502;1438.089480588998
28.8398205599543;1429.2613880490846
28.9026524130261;1414.3281751965123
28.965484266097892;1476.4070403839423
29.02831611916969;1498.7145567419893
29.091147972241483;1410.1710376962092
29.153979825313282;1293.065437205917
29.216811678385074;1377.8391327072493
29.279643531456873;1455.7434906150595
29.342475384528665;1464.586523135706
29.405307237600464;1433.0769016420213
29.468139090672256;1384.396131274603
29.530970943744055;1432.7545976516003
29.593802796815854;1514.50986079957
29.656634649887646;1544.6454531080406
29.719466502959445;1515.6846300297996
29.782298356031237;1509.2713537429108
29.845130209103036;1449.2852853665072
29.90796206217483;1440.5876323797668
29.970793915246627;1447.9814729028906
30.03362576831842;1390.2770524374973
30.09645762139022;1405.048044506006
30.15928947446201;1330.731128845683
30.22212132753381;1335.4528802011669
30.28495318060561;1371.264261628277
30.3477850336774;1347.2679665708463
30.4106168867492;1447.0502455590392
30.47344873982099;1451.0139920546337
30.53628059289279;1397.6147093903244
30.599112445964582;1254.34122737741
30.66194429903638;1225.271139349382
30.724776152108173;1241.421722590016
30.787608005179973;1244.9691009038381
30.85043985825177;1302.2613261388742
30.913271711323564;1377.2333741184714
30.976103564395363;1419.1559522773114
31.038935417467155;1438.088830370924
31.101767270538954;1408.8944658285031
31.164599123610746;1333.938283506111
31.227430976682545;1268.0588724979525
31.290262829754337;1200.024458620837
31.353094682826136;1225.0824867342776
31.415926535897928;1314.8670089145967
31.478758388969727;1344.4343848669575
31.541590242041526;1353.2159548438533
31.604422095113318;1320.1370121784976
31.667253948185117;1298.908788313243
31.73008580125691;1331.968775906247
31.792917654328708;1353.9053616202614
31.8557495074005;1262.5514518631016
31.9185813604723;1230.8366764837685
31.98141321354409;1254.422820118617
32.04424506661589;1232.829504055489
32.107076919687685;1284.2222094385113
32.169908772759484;1220.4998551459719
32.232740625831276;1222.6503000509297
32.295572478903075;1236.4437948278755
32.35840433197487;1283.7084878756482
32.421236185046666;1220.4606094265225
32.484068038118465;1145.1300117114683
32.54689989119026;1138.519593532399
32.60973174426206;1167.5158530150159
32.67256359733385;1151.6841949572845
32.73539545040565;1194.919299565793
32.79822730347744;1272.4808124319222
32.86105915654924;1186.2302742766371
32.92389100962103;1180.4797525267613
32.98672286269283;1212.3908264841325
33.04955471576463;1178.7495331509513
33.11238656883642;1151.0082545286848
33.17521842190822;1145.377972569953
33.23805027498001;1206.9723539111783
33.30088212805181;1297.7145309168993
33.3637139811236;1229.524826206114
33.4265458341954;1193.8984386052753
33.48937768726719;1281.4556161107128
33.55220954033899;1289.9801979835192
33.61504139341079;1345.601838244599
33.677873246482584;1278.4831654244563
33.74070509955438;1227.1956026546923
33.803536952626175;1231.3514051102197
33.866368805697974;1190.5317679367847
33.929200658769766;1171.2923915098997
