frequency;power spectrum
0.0;96648812.683
0.06283185307179587;67980083.85896145
0.12566370614359174;34068169.88079194
0.18849555921538758;16150704.306926427
0.25132741228718347;8219176.614228283
0.3141592653589793;4523760.829341369
0.37699111843077515;2732118.4307596674
0.43982297150257105;1856676.5512783483
0.5026548245743669;1330993.1672732404
0.5654866776461628;969495.3639622665
0.6283185307179586;741459.3280072828
0.6911503837897545;599881.5210695162
0.7539822368615503;521081.0916692363
0.8168140899333463;457915.5701994306
0.8796459430051421;388172.86753266223
0.9424777960769378;326827.0734002589
1.0053096491487339;298561.24054291804
1.0681415022205298;276874.28586746077
1.1309733552923256;262043.77775207083
1.1938052083641213;258751.9270975122
1.2566370614359172;232762.57763288103
1.3194689145077132;198667.5481150652
1.382300767579509;187216.87413242485
1.4451326206513047;179521.20422088125
1.5079644737231006;159724.3966811938
1.5707963267948966;150001.78848246217
1.6336281798666925;136359.94360086444
1.6964600329384882;128275.31141566264
1.7592918860102842;119723.16544285968
1.8221237390820801;109041.49425565498
1.8849555921538756;104435.36601221691
1.9477874452256716;99347.24415163824
2.0106192982974678;97754.20876676808
2.0734511513692637;93030.10135795492
2.1362830044410597;86847.94368530413
2.199114857512855;80155.2128137578
2.261946710584651;74027.1601833304
2.324778563656447;72169.58083930775
2.3876104167282426;71601.08273668886
2.4504422698000385;71971.5664770348
2.5132741228718345;64750.027589072495
2.57610597594363;59521.64757066816
2.6389378290154264;57717.54823229927
2.701769682087222;56489.4437980652
2.764601535159018;56415.39741842935
2.827433388230814;52431.671723471954
2.8902652413026093;50353.87147196967
2.9530970943744057;50244.71401104064
3.015928947446201;48834.38310380748
3.078760800517997;46096.43646689129
3.141592653589793;45347.99355120702
3.204424506661589;42609.02648004747
3.267256359733385;40140.900150589034
3.330088212805181;39166.0619172576
3.3929200658769765;36988.89826407735
3.4557519189487724;37153.6466999925
3.5185837720205684;39635.8838460739
3.581415625092364;39391.21148828146
3.6442474781641603;37013.58291368475
3.707079331235956;34742.02868891848
3.7699111843077513;35077.956290961876
3.8327430373795477;33797.287952833285
3.895574890451343;29945.347381300126
3.9584067435231396;28212.573668931604
4.0212385965949355;28262.459494312756
4.084070449666731;26676.995496865995
4.1469023027385274;26816.451319237098
4.209734155810323;27097.915970039237
4.272566008882119;28327.669536783633
4.335397861953915;28607.405684272348
4.39822971502571;26137.051703069003
4.461061568097507;27324.136042138558
4.523893421169302;26434.93364695028
4.586725274241098;23792.89939785633
4.649557127312894;22829.30696632133
4.71238898038469;22587.021084519674
4.775220833456485;22160.59192780256
4.838052686528282;21212.9935223887
4.900884539600077;19705.696103494254
4.9637163926718735;19842.046510353783
5.026548245743669;21350.821561028544
5.0893800988154645;22325.883608048516
5.15221195188726;21078.438625404287
5.215043804959057;20761.060929299616
5.277875658030853;20606.608422319587
5.340707511102648;20008.545617507192
5.403539364174444;18814.283389880013
5.466371217246239;19086.785285916943
5.529203070318036;19604.934887368247
5.592034923389832;18812.478508700486
5.654866776461628;19058.566060681445
5.717698629533423;18467.536525451043
5.780530482605219;18082.038972106362
5.843362335677015;16728.86748142238
5.906194188748811;15580.701738238924
5.969026041820607;15968.063320592968
6.031857894892402;15993.080895034214
6.094689747964199;15840.943855466856
6.157521601035994;15503.785199482358
6.220353454107791;15431.243647742504
6.283185307179586;15078.788955449354
6.346017160251382;15087.794341942428
6.408849013323178;15011.893408844877
6.471680866394974;14380.830944691528
6.53451271946677;13389.8186151843
6.5973445725385655;12033.405349767876
6.660176425610362;12140.139320800361
6.7230082786821574;13104.381312624773
6.785840131753953;12835.773076738727
6.8486719848257485;12213.540751897419
6.911503837897545;11971.209913422717
6.974335690969341;11780.523713874278
7.037167544041137;11564.419760502733
7.099999397112932;11461.059158477852
7.162831250184728;11504.663208634112
7.225663103256525;11649.951172312065
7.288494956328321;11870.114603575801
7.351326809400116;11487.729665951307
7.414158662471912;10485.31061346963
7.476990515543707;9827.938283654614
7.539822368615503;9937.632609680468
7.6026542216873;10146.620263342587
7.665486074759095;10162.019663286366
7.728317927830891;10529.412083310759
7.791149780902686;10833.567887877518
7.853981633974482;10297.129670652515
7.916813487046279;10454.009171256139
7.979645340118075;9761.665483178578
8.042477193189871;9800.245546977649
8.105309046261667;9808.946078547708
8.168140899333462;9717.948147925777
8.230972752405258;9587.382640713442
8.293804605477055;9594.332396014783
8.35663645854885;9585.981849555901
8.419468311620646;9560.039945403374
8.482300164692441;9208.688233914158
8.545132017764239;8995.574692933216
8.607963870836034;8195.134072815468
8.67079572390783;7797.9117621836995
8.733627576979625;8089.26642986639
8.79645943005142;8550.110922445763
8.859291283123216;8514.814612188558
8.922123136195014;8198.238993575591
8.984954989266809;7839.591281800736
9.047786842338605;8128.224054726336
9.1106186954104;7899.483599747371
9.173450548482196;8072.067146471789
9.236282401553993;8187.361099744236
9.299114254625788;8030.53059933053
9.361946107697584;7979.86965138921
9.42477796076938;7793.287214629563
9.487609813841175;7441.44848074951
9.55044166691297;7355.4878024965365
9.613273519984768;6971.7006939567045
9.676105373056563;7112.1225276043915
9.738937226128359;7032.331510174234
9.801769079200154;6997.640219143479
9.86460093227195;6528.453815184285
9.927432785343747;6139.348031847612
9.990264638415542;6321.196781929956
10.053096491487338;6390.242176129121
10.115928344559133;6394.081475990373
10.178760197630929;6665.407764151348
10.241592050702724;6538.218747567084
10.30442390377452;6654.879897207591
10.367255756846316;6571.00230929694
10.430087609918115;6885.37714703727
10.49291946298991;6928.594706382141
10.555751316061706;6794.267170743425
10.618583169133501;6509.366800984013
10.681415022205297;6040.29507176228
10.744246875277092;5953.916124552473
10.807078728348888;5897.664868075327
10.869910581420683;5974.875214413324
10.932742434492479;6193.454057019564
10.995574287564274;6142.301650357791
11.058406140636071;5840.510833969859
11.121237993707869;5737.348050339504
11.184069846779664;5602.826536566055
11.24690169985146;5207.76704624325
11.309733552923255;5615.953289942286
11.37256540599505;5941.180915660435
11.435397259066846;6057.392140993716
11.498229112138642;5886.03382637909
11.561060965210437;5754.647443895739
11.623892818282235;5631.21466478763
11.68672467135403;5582.775111044255
11.749556524425827;5345.30231265865
11.812388377497623;5430.690397383137
11.875220230569418;5415.922638499727
11.938052083641214;4894.1139164555225
12.00088393671301;4960.935459780504
12.063715789784805;5001.193441189486
12.1265476428566;4914.941741865337
12.189379495928398;4916.024512643206
12.252211349000193;4862.199513242943
12.315043202071989;5001.53040583171
12.377875055143784;5114.276187178438
12.440706908215581;5138.746984779647
12.503538761287377;4942.218307041111
12.566370614359172;4972.267384442656
12.629202467430968;5198.164184610638
12.692034320502763;5142.103077387334
12.75486617357456;4857.991392912436
12.817698026646356;4799.544344419506
12.880529879718152;4712.409208104045
12.943361732789947;4691.979343544652
13.006193585861743;4501.6151118485495
13.06902543893354;4403.207303949201
13.131857292005336;4342.091218386239
13.194689145077131;4437.948967478838
13.257520998148927;4515.667117159948
13.320352851220724;4568.299508847853
13.38318470429252;4564.8287614923665
13.446016557364315;4507.121048117892
13.50884841043611;4503.612628994874
13.571680263507906;4375.741919963916
13.634512116579701;4305.614870269477
13.697343969651497;4203.195783972836
13.760175822723294;4300.827527815647
13.82300767579509;4404.414435813249
13.885839528866887;4073.091260455296
13.948671381938683;3881.4966386117653
14.011503235010478;3810.7719757771742
14.074335088082274;3847.0806904382343
14.137166941154069;3789.150283335754
14.199998794225865;3957.394
14.26283064729766;4033.996920956324
14.325662500369456;3834.1981007861946
14.388494353441251;4157.983200022984
14.45132620651305;4135.697285442173
14.514158059584846;3946.173159543418
14.576989912656641;3961.536996899187
14.639821765728437;3919.021991679316
14.702653618800232;4069.68079099546
14.765485471872028;4149.0955576952565
14.828317324943823;4071.2478652968935
14.891149178015619;4147.81411361672
14.953981031087414;4480.887538003667
15.01681288415921;4284.357335138289
15.079644737231005;3928.766943600268
15.142476590302804;3904.3481359309008
15.2053084433746;3909.3883130683876
15.268140296446395;3857.799542014192
15.33097214951819;3865.375016451201
15.393804002589986;4043.674986237108
15.456635855661782;4051.064674547203
15.519467708733577;3868.0416307113587
15.582299561805373;3891.5323960009073
15.645131414877168;3844.262523195353
15.707963267948964;3556.983166867014
15.770795121020763;3176.65504700133
15.833626974092558;3095.448955279768
15.896458827164354;3237.0519179433527
15.95929068023615;3171.1734782585186
16.022122533307947;3116.713647006563
16.084954386379742;3173.897350128854
16.147786239451538;3326.06716517334
16.210618092523333;3261.1469388819446
16.27344994559513;3145.684940205653
16.336281798666924;3079.523374418914
16.39911365173872;3034.5164215892573
16.461945504810515;3067.080652704573
16.524777357882314;3120.8353464724128
16.58760921095411;3181.5832225317745
16.650441064025905;3113.670999441161
16.7132729170977;2972.9561911074056
16.776104770169496;2879.5028697076864
16.838936623241292;2894.2405165653868
16.901768476313087;2992.8739793458844
16.964600329384883;2969.7168350141615
17.02743218245668;3060.241115355375
17.090264035528477;3104.3699597889545
17.153095888600273;3109.1966504938687
17.21592774167207;3100.591200922905
17.278759594743864;2983.740625832801
17.34159144781566;2919.7769010327934
17.404423300887455;2943.4248860550983
17.46725515395925;3002.4700680974915
17.530087007031046;3001.0720124132185
17.59291886010284;3116.139559520603
17.655750713174637;2890.898513083587
17.718582566246432;2803.788460462004
17.78141441931823;2770.7049917298255
17.844246272390027;2801.441205577708
17.907078125461823;2765.6996653501424
17.969909978533618;2899.5439713110964
18.032741831605414;2872.7367831741403
18.09557368467721;2813.279206284577
18.158405537749005;2718.977609836176
18.2212373908208;2635.775014300999
18.284069243892596;2618.8537233997276
18.34690109696439;2523.094161225611
18.409732950036187;2659.3241957126725
18.472564803107986;2747.3234097622612
18.53539665617978;2741.359927614022
18.598228509251577;2636.725208790494
18.661060362323372;2566.817437717062
18.723892215395168;2558.7186095351303
18.786724068466963;2435.175180601579
18.84955592153876;2626.8985453142004
18.912387774610554;2697.3315787352735
18.97521962768235;2670.8829893398056
19.038051480754145;2697.7971910931246
19.10088333382594;2767.232000931303
19.16371518689774;2750.342861287431
19.226547039969535;2550.033981180499
19.28937889304133;2465.3906505830214
19.352210746113126;2425.871985717827
19.415042599184922;2557.0722638091925
19.477874452256717;2663.677747760053
19.540706305328513;2564.1577059705087
19.60353815840031;2552.7156960648767
19.666370011472104;2513.785647255407
19.7292018645439;2491.5583109299023
19.7920337176157;2700.7248472541883
19.854865570687494;2796.376899886069
19.91769742375929;2563.2685393621873
19.980529276831085;2460.31736101365
20.04336112990288;2421.5244719318034
20.106192982974676;2494.2003949450773
20.16902483604647;2554.503556807745
20.231856689118267;2542.9571329732694
20.294688542190062;2427.6761260729586
20.357520395261858;2422.7594773005867
20.420352248333653;2422.0458099465704
20.48318410140545;2209.070043507129
20.546015954477248;2238.5591109937345
20.60884780754904;2276.471950767175
20.67167966062084;2253.0459801233387
20.73451151369263;2278.5457731968727
20.79734336676443;2241.3179447932685
20.86017521983623;2234.9519061622814
20.92300707290802;2260.1120909079837
20.98583892597982;2235.6951077645504
21.048670779051612;2285.0855912867382
21.11150263212341;2291.1143458773845
21.174334485195203;2350.5436962629165
21.237166338267002;2284.231102966398
21.299998191338794;2397.083
21.362830044410593;2258.0203399653337
21.425661897482385;2080.4767233807484
21.488493750554184;2146.3175737592314
21.551325603625983;2277.18182434483
21.614157456697775;2210.9004157188056
21.676989309769574;2107.911218026317
21.739821162841366;2102.243461248061
21.802653015913165;2282.0573224447317
21.865484868984957;2255.811925271559
21.928316722056756;2267.8238519011843
21.99114857512855;2308.0689117604193
22.053980428200347;2239.4143203071744
22.116812281272143;2345.5391386881092
22.17964413434394;2261.078022520375
22.242475987415737;2202.350203665392
22.30530784048753;2145.376309598762
22.36813969355933;2238.242738600936
22.43097154663112;2233.1494426639847
22.49380339970292;2234.554385325323
22.55663525277471;2154.831802241748
22.61946710584651;2148.5233771717426
22.682298958918306;2019.006619859542
22.7451308119901;2088.3928721525454
22.8079626650619;2198.6908126775024
22.870794518133692;2235.5688083694345
22.93362637120549;2204.113857014153
22.996458224277283;2149.996841719038
23.059290077349083;2245.1518623378647
23.122121930420874;2255.0937898564707
23.184953783492674;2190.707709173248
23.24778563656447;2092.5671237514875
23.310617489636265;2038.213623144606
23.37344934270806;1989.8053435693978
23.436281195779856;1959.4754319376675
23.499113048851655;1973.8842744279038
23.561944901923447;1939.8609994412896
23.624776754995246;1891.956971072574
23.687608608067038;1947.6150525107666
23.750440461138837;1866.9954673768657
23.813272314210632;1853.7623791415847
23.876104167282428;1922.4166957829607
23.938936020354223;1928.4705266826002
24.00176787342602;1878.3985195874336
24.064599726497814;2033.7650139124971
24.12743157956961;2140.716571960561
24.19026343264141;2135.0251876418242
24.2530952857132;2036.743073731813
24.315927138785;1916.3899962451974
24.378758991856795;1983.5255537975502
24.44159084492859;1916.8294464123865
24.504422698000386;1869.2198975215833
24.567254551072182;1801.53081421618
24.630086404143977;1900.7764787570284
24.692918257215773;1954.099678940595
24.75575011028757;1815.3336999354822
24.818581963359364;1734.7530702636025
24.881413816431163;1690.6796366506603
24.94424566950296;1782.3588696419463
25.007077522574754;1766.1150724767372
25.06990937564655;1712.5883361205053
25.132741228718345;1673.4278056231212
25.19557308179014;1689.4902931266677
25.258404934861936;1690.9767027764242
25.32123678793373;1684.6592369981838
25.384068641005527;1723.2696419256372
25.446900494077322;1725.5713881392412
25.50973234714912;1777.4068446334625
25.572564200220917;1755.4445148135183
25.635396053292713;1742.5336506651747
25.698227906364508;1753.4609253942033
25.761059759436304;1791.0874890197977
25.8238916125081;1732.1034850376852
25.886723465579895;1736.2903210978552
25.94955531865169;1699.1197912670336
26.012387171723486;1631.9212920009616
26.075219024795285;1575.7627110615715
26.13805087786708;1536.5383959485953
26.200882730938876;1541.1274599535766
26.26371458401067;1592.3192905465926
26.326546437082467;1596.3604388209285
26.389378290154262;1670.3723768173143
26.452210143226058;1686.1000757628706
26.515041996297853;1642.6817790968346
26.57787384936965;1651.8758250287074
26.640705702441448;1650.7657161169798
26.70353755551324;1667.1168757247333
26.76636940858504;1679.6485203030397
26.829201261656834;1699.6115446082563
26.89203311472863;1733.3459949062376
26.954864967800425;1819.7454459653468
27.01769682087222;1741.51130818229
27.080528673944016;1714.460485385606
27.143360527015812;1617.838874837953
27.20619238008761;1575.7521281367444
27.269024233159403;1669.2173551630658
27.331856086231202;1624.477168790662
27.394687939302994;1602.4069131689685
27.457519792374793;1591.0187650399198
27.52035164544659;1624.7928774797783
27.583183498518384;1623.8736805295223
27.64601535159018;1697.4131582741948
27.708847204661975;1606.879230480472
27.771679057733774;1523.044659423829
27.834510910805566;1588.6194014032903
27.897342763877365;1610.7519194507775
27.960174616949157;1632.355785713156
28.023006470020956;1533.8923674239138
28.085838323092748;1477.9914404904362
28.148670176164547;1483.8395123072235
28.211502029236343;1447.7863252868053
28.274333882308138;1484.4859081355594
28.337165735379937;1537.3868806028177
28.39999758845173;1435.678
28.462829441523528;1473.444435263331
28.52566129459532;1496.047290555051
28.58849314766712;1395.90725576465
28.65132500073891;1343.4742747457667
28.71415685381071;1384.641558140364
28.776988706882502;1500.8196997331959
28.8398205599543;1626.410440208039
28.9026524130261;1590.5806681703248
28.965484266097892;1493.560653356036
29.02831611916969;1360.3617678195867
29.091147972241483;1331.5864373261356
29.153979825313282;1304.2653462365672
29.216811678385074;1357.800444029778
29.279643531456873;1420.3008369095553
29.342475384528665;1440.6760016245744
29.405307237600464;1488.0686326064797
29.468139090672256;1419.0395072688716
29.530970943744055;1444.637855464323
29.593802796815854;1487.4840206889544
29.656634649887646;1498.038290422382
29.719466502959445;1457.765978802265
29.782298356031237;1379.2090122287993
29.845130209103036;1329.8019082105423
29.90796206217483;1356.1286968100349
29.970793915246627;1389.4264001387276
30.03362576831842;1328.4452242085495
30.09645762139022;1378.2449199462499
30.15928947446201;1345.0601352975416
30.22212132753381;1382.54187457798
30.28495318060561;1386.1353486400692
30.3477850336774;1373.3361369715144
30.4106168867492;1430.180890854075
30.47344873982099;1479.3035647334696
30.53628059289279;1500.686364124542
30.599112445964582;1412.2023949375875
30.66194429903638;1351.8109678361832
30.724776152108173;1354.394954185136
30.787608005179973;1263.3197841733686
30.85043985825177;1260.1747381436694
30.913271711323564;1309.5120572398873
30.976103564395363;1331.989725277158
31.038935417467155;1422.4305567975764
31.101767270538954;1360.1336560874377
31.164599123610746;1285.483253460687
31.227430976682545;1180.1213169216244
31.290262829754337;1148.9548531428725
31.353094682826136;1184.808527328832
31.415926535897928;1204.7901034172255
31.478758388969727;1238.39390026299
31.541590242041526;1272.6023833682377
31.604422095113318;1271.0555505584582
31.667253948185117;1266.6793447841142
31.73008580125691;1289.5272326099591
31.792917654328708;1307.2209943314963
31.8557495074005;1310.010833177134
31.9185813604723;1305.0931353111237
31.98141321354409;1282.8455401478357
32.04424506661589;1254.0221681724374
32.107076919687685;1304.2940443939551
32.169908772759484;1279.6262023205716
32.232740625831276;1275.9443160479243
32.295572478903075;1206.3667538703978
32.35840433197487;1215.5811852302704
32.421236185046666;1217.8155097341744
32.484068038118465;1128.8621482088001
32.54689989119026;1092.798903187553
32.60973174426206;1203.4981000262737
32.67256359733385;1268.5481689916846
32.73539545040565;1252.1171809457005
32.79822730347744;1258.6922212716554
32.86105915654924;1198.1067554796123
32.92389100962103;1158.463575750188
32.98672286269283;1178.853572429586
33.04955471576463;1116.6267811144821
33.11238656883642;1103.6100872730876
33.17521842190822;1113.8651053254912
33.23805027498001;1181.0618694023763
33.30088212805181;1268.0516329766676
33.3637139811236;1215.0141095132212
33.4265458341954;1233.490243443279
33.48937768726719;1246.513870777475
33.55220954033899;1284.6407609600399
33.61504139341079;1213.0457604036073
33.677873246482584;1259.068302999224
33.74070509955438;1250.8509929896204
33.803536952626175;1258.657147707011
33.866368805697974;1236.129777471133
33.929200658769766;1201.7108268268137
