frequency;power spectrum
0.0;96648812.683
0.06283185307179587;67973297.97601537
0.12566370614359174;33862092.28391604
0.18849555921538758;15953132.742787138
0.25132741228718347;8031034.348275879
0.3141592653589793;4492095.089615799
0.37699111843077515;2637956.6114254557
0.43982297150257105;1775712.6702592273
0.5026548245743669;1274160.787573224
0.5654866776461628;974653.161892231
0.6283185307179586;726974.3051246548
0.6911503837897545;573663.2452044437
0.7539822368615503;495618.15245101805
0.8168140899333463;454557.5829857048
0.8796459430051421;429904.79108479025
0.9424777960769378;363357.639313674
1.0053096491487339;323434.7654909818
1.0681415022205298;270372.42873985233
1.1309733552923256;244432.5340943796
1.1938052083641213;242915.19724143294
1.2566370614359172;222095.929075929
1.3194689145077132;205375.27606444457
1.382300767579509;194105.4120617833
1.4451326206513047;176855.390504117
1.5079644737231006;156430.9992253987
1.5707963267948966;142559.88341421983
1.6336281798666925;133535.13728028748
1.6964600329384882;131146.0166120181
1.7592918860102842;123412.90595396233
1.8221237390820801;109773.83003698563
1.8849555921538756;105057.92398140885
1.9477874452256716;105277.53499724
2.0106192982974678;102605.89758233192
2.0734511513692637;92301.5811769005
2.1362830044410597;80577.40205471979
2.199114857512855;76553.17974825363
2.261946710584651;71950.34819200676
2.324778563656447;70938.92384605792
2.3876104167282426;71798.74755416157
2.4504422698000385;71803.96781260005
2.5132741228718345;69015.30342056195
2.57610597594363;66282.58276726995
2.6389378290154264;60690.96421549286
2.701769682087222;58251.08946989794
2.764601535159018;57712.91006397994
2.827433388230814;54059.502869582444
2.8902652413026093;50995.33425742765
2.9530970943744057;50035.203029773234
3.015928947446201;50108.05760098597
3.078760800517997;49335.90090579598
3.141592653589793;46344.940149878814
3.204424506661589;43166.38137615539
3.267256359733385;40326.87943448052
3.330088212805181;39758.716799815986
3.3929200658769765;36568.36465986072
3.4557519189487724;37875.368826283564
3.5185837720205684;40799.0289618653
3.581415625092364;39078.46548678049
3.6442474781641603;35463.52791852924
3.707079331235956;33468.14805967834
3.7699111843077513;35877.001214644144
3.8327430373795477;34430.64403307252
3.895574890451343;31182.593018298645
3.9584067435231396;29732.315869631584
4.0212385965949355;28126.51189021504
4.084070449666731;27215.957529581574
4.1469023027385274;27455.693687738687
4.209734155810323;27184.347785504484
4.272566008882119;27382.788980107638
4.335397861953915;26745.50388599891
4.39822971502571;25312.66894279849
4.461061568097507;26441.612963144467
4.523893421169302;25563.85686572336
4.586725274241098;23216.157889357954
4.649557127312894;22982.01245760588
4.71238898038469;22093.034533995964
4.775220833456485;21622.092290599638
4.838052686528282;20512.066693719196
4.900884539600077;18694.387200041743
4.9637163926718735;19231.400488261595
5.026548245743669;20340.94234412672
5.0893800988154645;21986.481420076714
5.15221195188726;20943.45368194715
5.215043804959057;20897.49988931493
5.277875658030853;19642.118280265586
5.340707511102648;19467.717863633177
5.403539364174444;18802.817541375967
5.466371217246239;19216.823797293542
5.529203070318036;18362.842858605916
5.592034923389832;17657.584115387323
5.654866776461628;17371.590395129853
5.717698629533423;16852.734351456023
5.780530482605219;17003.92968877821
5.843362335677015;16736.7356581148
5.906194188748811;16248.526081508631
5.969026041820607;15878.846142676804
6.031857894892402;15631.062387412965
6.094689747964199;16138.159129182712
6.157521601035994;15826.963128791998
6.220353454107791;15901.297657842997
6.283185307179586;14937.212106488758
6.346017160251382;14680.452156307478
6.408849013323178;14960.87633375879
6.471680866394974;14833.909972527677
6.53451271946677;14005.61351998697
6.5973445725385655;12923.488390182423
6.660176425610362;12232.400240860185
6.7230082786821574;12431.906446045872
6.785840131753953;12760.211471409975
6.8486719848257485;12643.767072752587
6.911503837897545;12205.22053348269
6.974335690969341;12493.249073890987
7.037167544041137;12223.692981887238
7.099999397112932;12040.183714100931
7.162831250184728;11982.279649033708
7.225663103256525;12128.081826084497
7.288494956328321;12931.917436771693
7.351326809400116;12456.204390515799
7.414158662471912;11511.107164286028
7.476990515543707;10966.868868944477
7.539822368615503;10708.26617005519
7.6026542216873;10508.53712226659
7.665486074759095;10302.269069157393
7.728317927830891;10327.248167454121
7.791149780902686;10312.476946585086
7.853981633974482;9927.522606362723
7.916813487046279;9948.369573416634
7.979645340118075;9979.225194640017
8.042477193189871;9671.60403126408
8.105309046261667;9450.76974847563
8.168140899333462;9565.998601776611
8.230972752405258;9955.714835090952
8.293804605477055;9820.741126037407
8.35663645854885;9900.522680736301
8.419468311620646;9619.165707008831
8.482300164692441;8924.109150128073
8.545132017764239;8810.05923588091
8.607963870836034;8556.089371156113
8.67079572390783;8324.211521776586
8.733627576979625;8213.457849214099
8.79645943005142;8411.657124403051
8.859291283123216;8369.82789800173
8.922123136195014;8109.787688486441
8.984954989266809;8305.36347910624
9.047786842338605;8124.811103920691
9.1106186954104;7711.266456352245
9.173450548482196;8054.49875830507
9.236282401553993;8153.700648583881
9.299114254625788;7905.016068656504
9.361946107697584;7735.919936801862
9.42477796076938;7183.523326207715
9.487609813841175;7134.884433204062
9.55044166691297;6928.803796289393
9.613273519984768;6734.233061063271
9.676105373056563;6926.95763018372
9.738937226128359;7017.200271645825
9.801769079200154;6795.6541740534085
9.86460093227195;6828.501651433415
9.927432785343747;6446.685041296624
9.990264638415542;6459.960397493466
10.053096491487338;6674.60997411166
10.115928344559133;6531.710830500088
10.178760197630929;6773.173579932181
10.241592050702724;6826.947810366984
10.30442390377452;6809.93653480396
10.367255756846316;6469.760190902883
10.430087609918115;6594.828784013975
10.49291946298991;6971.552260809133
10.555751316061706;6839.820379637043
10.618583169133501;6648.473426380711
10.681415022205297;6212.72937861807
10.744246875277092;6070.203779572833
10.807078728348888;6017.012907376975
10.869910581420683;6092.207110274572
10.932742434492479;6343.421142378573
10.995574287564274;6133.805900896082
11.058406140636071;5964.123403118125
11.121237993707869;5769.30600215725
11.184069846779664;5852.173662824427
11.24690169985146;5428.515158484612
11.309733552923255;5624.32715384261
11.37256540599505;5780.977292502416
11.435397259066846;5781.871673600387
11.498229112138642;5681.164984546397
11.561060965210437;5612.120504325274
11.623892818282235;5508.078126754076
11.68672467135403;5458.073376784869
11.749556524425827;5145.0734973655335
11.812388377497623;5082.7283107977155
11.875220230569418;5144.180857980368
11.938052083641214;4826.0281047142635
12.00088393671301;4814.947128727989
12.063715789784805;4842.320050628578
12.1265476428566;4742.9293721704225
12.189379495928398;4787.752686040079
12.252211349000193;4601.3724895610185
12.315043202071989;4679.57167142385
12.377875055143784;4862.834660242425
12.440706908215581;4980.581753673347
12.503538761287377;4848.706112847832
12.566370614359172;5005.367457110986
12.629202467430968;5055.3959873092035
12.692034320502763;5072.225717528211
12.75486617357456;4827.492439956804
12.817698026646356;4691.104186071513
12.880529879718152;4751.772833036372
12.943361732789947;4763.744392652247
13.006193585861743;4499.652598292919
13.06902543893354;4225.262377269437
13.131857292005336;4322.57974176907
13.194689145077131;4526.473256201798
13.257520998148927;4699.747342186051
13.320352851220724;4786.8052971204415
13.38318470429252;4694.4042072202055
13.446016557364315;4303.503678143605
13.50884841043611;4106.485874124389
13.571680263507906;4007.6460721026315
13.634512116579701;3957.3936931206617
13.697343969651497;4053.7591088512063
13.760175822723294;4176.955568373786
13.82300767579509;4257.360242862058
13.885839528866887;3854.971145304507
13.948671381938683;3749.034457570416
14.011503235010478;3688.040894011362
14.074335088082274;3975.730538942055
14.137166941154069;3871.203907029758
14.199998794225865;4017.428
14.26283064729766;4019.3949811129937
14.325662500369456;3805.64868188841
14.388494353441251;4130.815451979558
14.45132620651305;4516.68655668847
14.514158059584846;4344.929325783927
14.576989912656641;4051.455186010892
14.639821765728437;3997.803537984687
14.702653618800232;3876.203319353243
14.765485471872028;3854.9042339792145
14.828317324943823;4071.0999042192752
14.891149178015619;4025.2146123226908
14.953981031087414;4069.1438539905184
15.01681288415921;3933.08323345266
15.079644737231005;3752.6204082967906
15.142476590302804;3622.712544724997
15.2053084433746;3525.603208924767
15.268140296446395;3744.8302542966535
15.33097214951819;3774.611902719
15.393804002589986;3726.8210735662547
15.456635855661782;3836.8374602326385
15.519467708733577;3808.257680712813
15.582299561805373;3762.9411777509176
15.645131414877168;3711.6772005815465
15.707963267948964;3643.6857807425677
15.770795121020763;3455.5910710540084
15.833626974092558;3427.1435645801703
15.896458827164354;3565.4339118015255
15.95929068023615;3519.838690498095
16.022122533307947;3420.758292265529
16.084954386379742;3350.0814097344933
16.147786239451538;3283.7447668030904
16.210618092523333;3169.066280879972
16.27344994559513;3146.878633905434
16.336281798666924;3204.871692491242
16.39911365173872;3143.9083703251786
16.461945504810515;3200.8965022319667
16.524777357882314;3233.6170458522756
16.58760921095411;3246.520542515551
16.650441064025905;3212.4839316251505
16.7132729170977;3133.309231364903
16.776104770169496;3013.7409131474788
16.838936623241292;3042.9722018239913
16.901768476313087;2961.4081037187266
16.964600329384883;2980.1124328686838
17.02743218245668;3137.1109801435464
17.090264035528477;3158.5077307001266
17.153095888600273;2941.2223136967273
17.21592774167207;2924.8889202364953
17.278759594743864;2837.564080667209
17.34159144781566;2821.002914757211
17.404423300887455;2874.7520238562342
17.46725515395925;3089.584332767648
17.530087007031046;3105.2078588925124
17.59291886010284;3042.99019224915
17.655750713174637;2851.1155084845695
17.718582566246432;2816.448710087793
17.78141441931823;2826.082770264793
17.844246272390027;2894.282848537967
17.907078125461823;2850.7596085459177
17.969909978533618;2985.872465330034
18.032741831605414;2843.9784673127106
18.09557368467721;2812.5067018669215
18.158405537749005;2640.545267201102
18.2212373908208;2561.2418520669526
18.284069243892596;2643.3812682920975
18.34690109696439;2658.043325255003
18.409732950036187;2799.2660726831286
18.472564803107986;2825.012299928144
18.53539665617978;2893.8183409928256
18.598228509251577;2825.037238477491
18.661060362323372;2744.789038382166
18.723892215395168;2654.919866651166
18.786724068466963;2534.094593308647
18.84955592153876;2611.0309346464846
18.912387774610554;2666.094179208389
18.97521962768235;2697.3263166626616
19.038051480754145;2751.2131947777207
19.10088333382594;2731.8145284238594
19.16371518689774;2754.5042767985715
19.226547039969535;2679.966695962164
19.28937889304133;2687.9996776945122
19.352210746113126;2542.652852595403
19.415042599184922;2543.8237036405876
19.477874452256717;2542.050672633036
19.540706305328513;2615.5573787466856
19.60353815840031;2625.7653511459125
19.666370011472104;2516.482416654249
19.7292018645439;2415.85231980347
19.7920337176157;2636.1620590447637
19.854865570687494;2640.315713470267
19.91769742375929;2610.74372998145
19.980529276831085;2622.586567686464
20.04336112990288;2685.8707103585302
20.106192982974676;2783.1775557476208
20.16902483604647;2723.080223715758
20.231856689118267;2585.4806404346064
20.294688542190062;2472.2427246576754
20.357520395261858;2362.3606173404587
20.420352248333653;2311.532399849508
20.48318410140545;2321.675271250682
20.546015954477248;2383.668491202544
20.60884780754904;2343.187439922618
20.67167966062084;2272.334129424547
20.73451151369263;2263.9545160874704
20.79734336676443;2131.298578156432
20.86017521983623;2155.4967185776013
20.92300707290802;2275.548143924951
20.98583892597982;2143.9662015322874
21.048670779051612;2165.027948055037
21.11150263212341;2237.2013868128934
21.174334485195203;2432.086393927428
21.237166338267002;2439.60479172769
21.299998191338794;2459.797
21.362830044410593;2334.557602193376
21.425661897482385;2155.148963182807
21.488493750554184;2114.6805463120168
21.551325603625983;2111.2125314647515
21.614157456697775;2087.2629486085025
21.676989309769574;2127.577146038461
21.739821162841366;2206.2773454813414
21.802653015913165;2264.276541343768
21.865484868984957;2250.1114053904093
21.928316722056756;2252.473064216297
21.99114857512855;2292.3060503836273
22.053980428200347;2283.104194210606
22.116812281272143;2307.409491881121
22.17964413434394;2170.968405091482
22.242475987415737;2102.2679717750016
22.30530784048753;2199.335781192282
22.36813969355933;2200.261724762225
22.43097154663112;2165.644630601782
22.49380339970292;2218.2239907618005
22.55663525277471;2123.4140996544547
22.61946710584651;2169.145504709082
22.682298958918306;2012.125303908466
22.7451308119901;2117.0663697540176
22.8079626650619;2258.9215589931036
22.870794518133692;2292.8751222432584
22.93362637120549;2220.570023977755
22.996458224277283;2139.1239596977025
23.059290077349083;2233.688017997393
23.122121930420874;2247.268289922578
23.184953783492674;2235.0935699365036
23.24778563656447;2200.5779542136875
23.310617489636265;2125.300818801023
23.37344934270806;1986.1358691302594
23.436281195779856;1847.065455105998
23.499113048851655;1861.0386798666352
23.561944901923447;1833.1391422556162
23.624776754995246;1907.4467094025388
23.687608608067038;1930.318135360398
23.750440461138837;1921.262188856449
23.813272314210632;1942.4018565569586
23.876104167282428;1983.4380225125235
23.938936020354223;1881.4357193697135
24.00176787342602;1699.6632838826495
24.064599726497814;1850.8668706360647
24.12743157956961;2018.1709821844904
24.19026343264141;2070.3259480774695
24.2530952857132;2049.029144678343
24.315927138785;1889.0990183509296
24.378758991856795;1908.6250493057034
24.44159084492859;1903.183765438618
24.504422698000386;1892.3593165813268
24.567254551072182;1787.3036001768032
24.630086404143977;1811.6535372130297
24.692918257215773;1761.9709698801826
24.75575011028757;1733.4153137790097
24.818581963359364;1766.2818684459005
24.881413816431163;1768.8232540118638
24.94424566950296;1790.1943960289777
25.007077522574754;1736.101881006667
25.06990937564655;1667.2882511471837
25.132741228718345;1597.283236033594
25.19557308179014;1639.45260166198
25.258404934861936;1805.822365720934
25.32123678793373;1912.1447124337196
25.384068641005527;1940.6018419974216
25.446900494077322;1817.2954497582646
25.50973234714912;1779.2824134779453
25.572564200220917;1766.2466769985963
25.635396053292713;1806.8293658835303
25.698227906364508;1791.850378942438
25.761059759436304;1732.6864049569385
25.8238916125081;1653.6663563827763
25.886723465579895;1640.0188487875362
25.94955531865169;1677.9824438343949
26.012387171723486;1611.153090456151
26.075219024795285;1498.8457513862786
26.13805087786708;1406.944634002925
26.200882730938876;1498.462845209053
26.26371458401067;1560.2199814713758
26.326546437082467;1653.9081531600355
26.389378290154262;1720.610490170175
26.452210143226058;1737.6086208003665
26.515041996297853;1717.2336976299566
26.57787384936965;1624.0748908855367
26.640705702441448;1557.6040590440323
26.70353755551324;1560.0047894859704
26.76636940858504;1602.3326310359653
26.829201261656834;1636.5102867174328
26.89203311472863;1629.7477446973314
26.954864967800425;1736.8920763562492
27.01769682087222;1780.19680734525
27.080528673944016;1749.4132240149086
27.143360527015812;1690.8751132316618
27.20619238008761;1587.7389406886048
27.269024233159403;1625.2800281817515
27.331856086231202;1608.4422386584517
27.394687939302994;1621.4153518306587
27.457519792374793;1628.4994093717337
27.52035164544659;1665.9576360838373
27.583183498518384;1666.4692704689223
27.64601535159018;1773.2772765200614
27.708847204661975;1666.009501300596
27.771679057733774;1505.2287643240484
27.834510910805566;1495.1396550761267
27.897342763877365;1508.0091228876465
27.960174616949157;1526.8058405641325
28.023006470020956;1578.4051232979289
28.085838323092748;1579.6783492621341
28.148670176164547;1577.7881171407632
28.211502029236343;1507.45998243916
28.274333882308138;1474.3064696713623
28.337165735379937;1508.6901004110534
28.39999758845173;1485.358
28.462829441523528;1508.9819377554754
28.52566129459532;1510.380370755188
28.58849314766712;1477.0435834338216
28.65132500073891;1452.686209234787
28.71415685381071;1481.8355027447824
28.776988706882502;1525.5092275311536
28.8398205599543;1548.7752507420505
28.9026524130261;1531.6936280502152
28.965484266097892;1530.3232517611816
29.02831611916969;1494.971167432776
29.091147972241483;1458.3106722028745
29.153979825313282;1451.0932195368382
29.216811678385074;1447.0716643927838
29.279643531456873;1396.4844586082
29.342475384528665;1370.9881842539696
29.405307237600464;1399.2116922647951
29.468139090672256;1371.4000281732615
29.530970943744055;1457.9200218602916
29.593802796815854;1535.853076486544
29.656634649887646;1575.788155207127
29.719466502959445;1548.8643507320203
29.782298356031237;1474.376319378757
29.845130209103036;1471.3108329706706
29.90796206217483;1454.076873123846
29.970793915246627;1415.340450701408
30.03362576831842;1347.404496028781
30.09645762139022;1316.4406237152257
30.15928947446201;1288.6393627167074
30.22212132753381;1318.7472381779785
30.28495318060561;1323.581727066063
30.3477850336774;1335.2494883701545
30.4106168867492;1346.2435486960208
30.47344873982099;1316.9959305106486
30.53628059289279;1302.3189647694528
30.599112445964582;1258.6385838831172
30.66194429903638;1245.7545067132974
30.724776152108173;1316.1565169929065
30.787608005179973;1287.3073759627855
30.85043985825177;1335.482393377466
30.913271711323564;1386.9603887540845
30.976103564395363;1380.2954551187113
31.038935417467155;1437.4342573473762
31.101767270538954;1456.4620753767558
31.164599123610746;1350.2643271031247
31.227430976682545;1230.1682241808137
31.290262829754337;1163.0063907480117
31.353094682826136;1204.5744578724928
31.415926535897928;1284.620720117161
31.478758388969727;1347.369520331274
31.541590242041526;1300.306558466851
31.604422095113318;1270.4421313700605
31.667253948185117;1271.0827760871834
31.73008580125691;1336.67984669504
31.792917654328708;1305.8776139173365
31.8557495074005;1238.7684874272832
31.9185813604723;1245.6000666687546
31.98141321354409;1291.7444180572577
32.04424506661589;1258.1715220781205
32.107076919687685;1335.3618625312013
32.169908772759484;1357.170797399782
32.232740625831276;1304.097884596492
32.295572478903075;1268.4078979166393
32.35840433197487;1291.1803477362155
32.421236185046666;1250.8263097760773
32.484068038118465;1157.6654774573653
32.54689989119026;1107.488536082338
32.60973174426206;1141.8225124048588
32.67256359733385;1176.7346959436654
32.73539545040565;1201.6838866242726
32.79822730347744;1227.5078712542463
32.86105915654924;1172.8466323208181
32.92389100962103;1158.8306035997707
32.98672286269283;1222.1541793579206
33.04955471576463;1222.6517154232047
33.11238656883642;1140.7434572342768
33.17521842190822;1130.0663940150914
33.23805027498001;1264.902110901019
33.30088212805181;1360.8994541986872
33.3637139811236;1250.8434320178633
33.4265458341954;1161.3048615627522
33.48937768726719;1248.849535510911
33.55220954033899;1292.7084071379268
33.61504139341079;1339.4810712573026
33.677873246482584;1273.1070001325413
33.74070509955438;1196.961967189056
33.803536952626175;1243.9436454073693
33.866368805697974;1223.0604531520512
33.929200658769766;1216.1458346875813
