frequency;power spectrum
0.0;118764909.345
0.06283185307179587;88223776.57493964
0.12566370614359174;47177146.66324031
0.18849555921538758;24542647.35505416
0.25132741228718347;12639304.60837472
0.3141592653589793;6768636.062596799
0.37699111843077515;4228668.291822958
0.43982297150257105;2826322.500104553
0.5026548245743669;2049930.1891939458
0.5654866776461628;1477595.1969154861
0.6283185307179586;1157153.2094460598
0.6911503837897545;928012.6975368449
0.7539822368615503;770261.7535701562
0.8168140899333463;639179.348925666
0.8796459430051421;574976.4047065912
0.9424777960769378;492788.42084833595
1.0053096491487339;429143.46133027016
1.0681415022205298;405526.96932884393
1.1309733552923256;364710.5332469019
1.1938052083641213;314565.1394116682
1.2566370614359172;293347.2535772077
1.3194689145077132;280787.0090157738
1.382300767579509;256345.06481145628
1.4451326206513047;231847.8000011905
1.5079644737231006;208904.68271549782
1.5707963267948966;196083.5707783233
1.6336281798666925;179276.24861062047
1.6964600329384882;167257.8321495997
1.7592918860102842;164911.85399188343
1.8221237390820801;162851.17061427786
1.8849555921538756;152554.84305867102
1.9477874452256716;145576.7091472781
2.0106192982974678;135103.2001880312
2.0734511513692637;131236.74638855222
2.1362830044410597;127958.88930199602
2.199114857512855;118896.5606537707
2.261946710584651;114883.72971583885
2.324778563656447;111448.4831406031
2.3876104167282426;105139.26674958874
2.4504422698000385;97160.36578397074
2.5132741228718345;94627.48751255142
2.57610597594363;93822.38366274144
2.6389378290154264;89607.3762786568
2.701769682087222;87504.8440103608
2.764601535159018;84186.12249289852
2.827433388230814;81652.04395791132
2.8902652413026093;75585.01131122795
2.9530970943744057;68563.08765610568
3.015928947446201;66567.74881265585
3.078760800517997;63053.91284638051
3.141592653589793;59207.43347363011
3.204424506661589;57913.47801244327
3.267256359733385;56153.249527671454
3.330088212805181;54196.49719689887
3.3929200658769765;55409.41095086449
3.4557519189487724;57784.84925346188
3.5185837720205684;57294.46948852598
3.581415625092364;54087.79858965817
3.6442474781641603;50366.883369296316
3.707079331235956;47371.691653983115
3.7699111843077513;44826.46587555177
3.8327430373795477;43822.669592491875
3.895574890451343;41554.34155153605
3.9584067435231396;40758.444258924
4.0212385965949355;40859.854014220844
4.084070449666731;40820.41906384035
4.1469023027385274;40342.84741975452
4.209734155810323;38103.05590426609
4.272566008882119;37716.77764942999
4.335397861953915;37751.97458650488
4.39822971502571;36723.771206939695
4.461061568097507;36509.69066157278
4.523893421169302;35475.36212947261
4.586725274241098;35662.32620413722
4.649557127312894;35915.9057829328
4.71238898038469;32969.37127313682
4.775220833456485;33280.88897272758
4.838052686528282;32416.154278872982
4.900884539600077;31654.246283701166
4.9637163926718735;31376.180743835936
5.026548245743669;30124.25357701526
5.0893800988154645;31217.220445949155
5.15221195188726;31434.930080476457
5.215043804959057;28972.425636286145
5.277875658030853;27134.641033968364
5.340707511102648;26335.648410265334
5.403539364174444;24982.147896411243
5.466371217246239;23429.119178372486
5.529203070318036;22858.180452029334
5.592034923389832;22537.550350801874
5.654866776461628;24090.88950164043
5.717698629533423;24689.649467737505
5.780530482605219;25215.706111149095
5.843362335677015;24906.23711227904
5.906194188748811;24210.61586495431
5.969026041820607;24251.838506925364
6.031857894892402;23352.98976590122
6.094689747964199;22227.568290049363
6.157521601035994;21048.487770301097
6.220353454107791;20269.10362076989
6.283185307179586;19987.702531162402
6.346017160251382;19514.972209232714
6.408849013323178;18965.795835174584
6.471680866394974;18548.923814903595
6.53451271946677;18162.439470623358
6.5973445725385655;18212.091222605875
6.660176425610362;18058.98559335412
6.7230082786821574;17581.95765355566
6.785840131753953;16670.64190637327
6.8486719848257485;16652.2483844849
6.911503837897545;17183.545541651692
6.974335690969341;17235.23082516793
7.037167544041137;17356.905268730225
7.099999397112932;15880.216220901686
7.162831250184728;15111.835974089545
7.225663103256525;14810.037049934577
7.288494956328321;14791.345301311592
7.351326809400116;15217.355855760157
7.414158662471912;15420.12569706841
7.476990515543707;14990.109261629083
7.539822368615503;14727.659738185012
7.6026542216873;14489.128443626061
7.665486074759095;13848.284273790388
7.728317927830891;14213.731918719339
7.791149780902686;14144.882264111518
7.853981633974482;13824.54475581232
7.916813487046279;14088.29282090334
7.979645340118075;14078.130306479608
8.042477193189871;14169.394404805766
8.105309046261667;14217.600959134037
8.168140899333462;13783.626793908015
8.230972752405258;13463.729362584949
8.293804605477055;13713.50942314113
8.35663645854885;13706.281901696939
8.419468311620646;13713.437157994225
8.482300164692441;13234.270400945217
8.545132017764239;12589.449277842421
8.607963870836034;12054.930243058472
8.67079572390783;12326.558528050682
8.733627576979625;12735.786550402763
8.79645943005142;12182.462385468574
8.859291283123216;11866.653926296689
8.922123136195014;11563.728126770187
8.984954989266809;11373.456305996218
9.047786842338605;10918.64096354799
9.1106186954104;10586.050612264984
9.173450548482196;10590.23685654584
9.236282401553993;10274.368975387899
9.299114254625788;10365.827083725182
9.361946107697584;10198.939989813336
9.42477796076938;10406.547869149903
9.487609813841175;10112.062443642984
9.55044166691297;9374.16162784344
9.613273519984768;9187.494825100133
9.676105373056563;9727.841826635298
9.738937226128359;10151.490086672
9.801769079200154;10472.844553683373
9.86460093227195;10223.260798123436
9.927432785343747;9656.002989479795
9.990264638415542;9197.877090996884
10.053096491487338;8930.00355752517
10.115928344559133;8624.974661782404
10.178760197630929;9135.139023396947
10.241592050702724;9282.199580661641
10.30442390377452;9198.455687877084
10.367255756846316;9353.49560867535
10.430087609918115;9189.897484704947
10.49291946298991;9060.633418744577
10.555751316061706;9036.475771771713
10.618583169133501;8950.509804801832
10.681415022205297;7984.160693749502
10.744246875277092;7969.933793882009
10.807078728348888;7990.745402906677
10.869910581420683;7984.267863291395
10.932742434492479;8051.571245484858
10.995574287564274;8061.433492825316
11.058406140636071;8026.372629521997
11.121237993707869;7543.846331865686
11.184069846779664;7196.618768051123
11.24690169985146;7202.535016432187
11.309733552923255;7408.732235704231
11.37256540599505;7938.00323653982
11.435397259066846;8136.855229163964
11.498229112138642;7796.826575128282
11.561060965210437;7660.611937126342
11.623892818282235;7224.344895781039
11.68672467135403;7045.422200388263
11.749556524425827;7585.90348651373
11.812388377497623;7153.074988473027
11.875220230569418;6709.415403599799
11.938052083641214;6700.256056014031
12.00088393671301;6544.113406525724
12.063715789784805;6523.505700448792
12.1265476428566;6504.584585974349
12.189379495928398;6599.10812450585
12.252211349000193;6867.455278258541
12.315043202071989;6940.703982150794
12.377875055143784;6880.741862813605
12.440706908215581;6969.908600588874
12.503538761287377;7064.2052416416145
12.566370614359172;6855.832939451384
12.629202467430968;6850.489892791563
12.692034320502763;7241.544451783684
12.75486617357456;6695.592656609386
12.817698026646356;6319.588204314715
12.880529879718152;6084.497261204809
12.943361732789947;6274.641546658561
13.006193585861743;6513.006855482337
13.06902543893354;6770.230621691368
13.131857292005336;6761.922567703728
13.194689145077131;6535.912186172747
13.257520998148927;6336.040149283248
13.320352851220724;6230.804400008541
13.38318470429252;6337.38194981415
13.446016557364315;6367.651228385442
13.50884841043611;6230.46604980188
13.571680263507906;5719.10168282995
13.634512116579701;5331.826116778041
13.697343969651497;5269.342044305273
13.760175822723294;5451.461150793714
13.82300767579509;5505.535656498848
13.885839528866887;5359.597886205435
13.948671381938683;5439.7444780877195
14.011503235010478;5577.005542110064
14.074335088082274;5535.035906648481
14.137166941154069;5403.586218135028
14.199998794225865;5120.106843694853
14.26283064729766;5128.439644366753
14.325662500369456;5454.500439200806
14.388494353441251;5895.179381027717
14.45132620651305;5940.829104898895
14.514158059584846;5831.902654417753
14.576989912656641;5679.631413928203
14.639821765728437;5585.608316652599
14.702653618800232;5363.653323079586
14.765485471872028;5203.353141353862
14.828317324943823;5348.527304351876
14.891149178015619;5392.082074076532
14.953981031087414;5263.944248219587
15.01681288415921;5349.765663848826
15.079644737231005;5271.450832485215
15.142476590302804;5374.953642717081
15.2053084433746;5416.9416490896765
15.268140296446395;5171.864380820449
15.33097214951819;5043.7799813074935
15.393804002589986;5029.921449822557
15.456635855661782;5064.68709829486
15.519467708733577;4941.995673463962
15.582299561805373;5011.681050555958
15.645131414877168;5040.917801983013
15.707963267948964;4734.522559558806
15.770795121020763;4407.476972341425
15.833626974092558;4479.519800050893
15.896458827164354;4713.505441886265
15.95929068023615;5039.12350798609
16.022122533307947;4690.118695678195
16.084954386379742;4564.805451996401
16.147786239451538;4524.857121415103
16.210618092523333;4621.025423348517
16.27344994559513;4496.194427128976
16.336281798666924;4426.6031605702865
16.39911365173872;4471.308503400046
16.461945504810515;4570.4550807229025
16.524777357882314;4537.223385668214
16.58760921095411;4661.1049530985665
16.650441064025905;4476.285578426154
16.7132729170977;4466.789538138847
16.776104770169496;4507.053404642338
16.838936623241292;4378.933562718019
16.901768476313087;4387.537258283358
16.964600329384883;4297.596803849407
17.02743218245668;4275.207574964091
17.090264035528477;4182.571833845513
17.153095888600273;4229.0882143281215
17.21592774167207;4419.192971146314
17.278759594743864;4492.455185645481
17.34159144781566;4545.650777175368
17.404423300887455;4516.237317855792
17.46725515395925;4371.89724991572
17.530087007031046;4253.229219801256
17.59291886010284;4182.569654084592
17.655750713174637;4131.879728224244
17.718582566246432;4218.011766729979
17.78141441931823;4206.324163212818
17.844246272390027;3958.6063252442086
17.907078125461823;3765.9169969647255
17.969909978533618;3782.104739016903
18.032741831605414;3861.4796264932
18.09557368467721;3832.561784073048
18.158405537749005;3801.9763939349136
18.2212373908208;3953.310292519783
18.284069243892596;3901.9178645621437
18.34690109696439;3867.9390245846034
18.409732950036187;3918.2990770111137
18.472564803107986;3918.334139861723
18.53539665617978;3810.9487918196664
18.598228509251577;3825.7393688885545
18.661060362323372;3772.248294137172
18.723892215395168;3875.718380816415
18.786724068466963;3882.4756164135165
18.84955592153876;3809.661244610501
18.912387774610554;3464.305483674963
18.97521962768235;3341.906440191368
19.038051480754145;3697.834565461943
19.10088333382594;3803.366036030933
19.16371518689774;3679.5151806233193
19.226547039969535;3662.160288011633
19.28937889304133;3723.3326439826033
19.352210746113126;3717.6331902866655
19.415042599184922;3730.4395938983093
19.477874452256717;3800.807792809939
19.540706305328513;3757.9720564616287
19.60353815840031;3635.758356595824
19.666370011472104;3567.9031396846526
19.7292018645439;3420.6848160628133
19.7920337176157;3510.595393948148
19.854865570687494;3550.3655864524085
19.91769742375929;3607.850543691729
19.980529276831085;3493.8252659299615
20.04336112990288;3357.0916123342627
20.106192982974676;3291.2773743894704
20.16902483604647;3241.9464021972094
20.231856689118267;3258.742935476304
20.294688542190062;3218.243600203306
20.357520395261858;3128.4388774690606
20.420352248333653;3203.060491760311
20.48318410140545;3367.099676135484
20.546015954477248;3342.3808766753236
20.60884780754904;3123.6849031275833
20.67167966062084;3225.487040914216
20.73451151369263;3203.1369075825796
20.79734336676443;3232.49317163883
20.86017521983623;3404.535875114184
20.92300707290802;3294.159617249292
20.98583892597982;3177.2580331782565
21.048670779051612;3119.556138577869
21.11150263212341;3095.6696858674145
21.174334485195203;3071.7577309019966
21.237166338267002;3271.4389343697458
21.299998191338794;3032.155790983897
21.362830044410593;3036.8467648828
21.425661897482385;3015.193810513153
21.488493750554184;2939.2552109793055
21.551325603625983;2821.548566921423
21.614157456697775;2926.526749113996
21.676989309769574;2840.8381891112836
21.739821162841366;2953.2761675944635
21.802653015913165;3284.168700539901
21.865484868984957;3280.5798625031707
21.928316722056756;3111.7819179397757
21.99114857512855;2993.0904443843997
22.053980428200347;2947.2130263357126
22.116812281272143;2836.9030303779136
22.17964413434394;2815.1074979491327
22.242475987415737;2740.436684509464
22.30530784048753;2697.0854053071007
22.36813969355933;2765.6907002616554
22.43097154663112;2812.689900123675
22.49380339970292;2885.713054405554
22.55663525277471;2849.8411474665036
22.61946710584651;2784.3032160335183
22.682298958918306;2770.099401134099
22.7451308119901;2758.334489304193
22.8079626650619;2803.183268535066
22.870794518133692;3013.442664097119
22.93362637120549;3008.161032757512
22.996458224277283;2895.544863003092
23.059290077349083;2758.5416857301343
23.122121930420874;2791.156348665217
23.184953783492674;2795.326076315207
23.24778563656447;2684.9733913028194
23.310617489636265;2684.311106769196
23.37344934270806;2741.916927577935
23.436281195779856;2868.1149671965936
23.499113048851655;2835.163045097956
23.561944901923447;2561.5950845155485
23.624776754995246;2536.11784156389
23.687608608067038;2616.485184471819
23.750440461138837;2530.976336073486
23.813272314210632;2618.199863787255
23.876104167282428;2743.3572599621903
23.938936020354223;2736.2180775873394
24.00176787342602;2745.5225460504917
24.064599726497814;2725.9561921471013
24.12743157956961;2674.150076489643
24.19026343264141;2793.265922139063
24.2530952857132;2836.4391594106955
24.315927138785;2556.4739852250705
24.378758991856795;2419.349486165478
24.44159084492859;2347.8463990235614
24.504422698000386;2395.685312381314
24.567254551072182;2533.0913857776754
24.630086404143977;2612.6244045260455
24.692918257215773;2491.2921549207895
24.75575011028757;2395.6094312029445
24.818581963359364;2417.171200582167
24.881413816431163;2449.497807172386
24.94424566950296;2539.070292613832
25.007077522574754;2538.302094815473
25.06990937564655;2566.819216604736
25.132741228718345;2579.344249588752
25.19557308179014;2585.5073160030424
25.258404934861936;2636.189255631378
25.32123678793373;2649.65848272251
25.384068641005527;2521.7579296415006
25.446900494077322;2481.7580235366004
25.50973234714912;2572.8209905465606
25.572564200220917;2505.569371382069
25.635396053292713;2469.11323060163
25.698227906364508;2462.14089430245
25.761059759436304;2375.077838765338
25.8238916125081;2414.6848797276225
25.886723465579895;2356.156474242483
25.94955531865169;2339.591205970029
26.012387171723486;2320.185122373197
26.075219024795285;2284.0971809838197
26.13805087786708;2344.1347997665407
26.200882730938876;2408.458804540952
26.26371458401067;2332.6658524779596
26.326546437082467;2379.731088562769
26.389378290154262;2382.8442949490786
26.452210143226058;2375.715729566036
26.515041996297853;2293.633082457618
26.57787384936965;2384.4446465744313
26.640705702441448;2491.181964239901
26.70353755551324;2624.10210569617
26.76636940858504;2597.665877881552
26.829201261656834;2439.2837486142835
26.89203311472863;2407.414438283
26.954864967800425;2267.254915655271
27.01769682087222;2179.7513817672116
27.080528673944016;2217.035119659444
27.143360527015812;2218.0478236228223
27.20619238008761;2133.6725750834185
27.269024233159403;2143.558058689479
27.331856086231202;2126.972274712877
27.394687939302994;2224.6986405283374
27.457519792374793;2327.1463152270794
27.52035164544659;2286.365521143514
27.583183498518384;2175.237019180756
27.64601535159018;2273.8295098795156
27.708847204661975;2247.238572000282
27.771679057733774;2161.6898225611276
27.834510910805566;2154.546769981179
27.897342763877365;2087.25587753647
27.960174616949157;2045.6872130134193
28.023006470020956;2068.8309580256832
28.085838323092748;1933.5099661518068
28.148670176164547;1868.8405958885444
28.211502029236343;1917.6297196860835
28.274333882308138;1959.1289847797357
28.337165735379937;2069.315417490286
28.39999758845173;2114.932914452416
28.462829441523528;2092.2439163565605
28.52566129459532;2122.4092070043757
28.58849314766712;2123.526585710024
28.65132500073891;2084.6150971634956
28.71415685381071;2034.8238375529559
28.776988706882502;2029.676776914528
28.8398205599543;2011.906073206919
28.9026524130261;1999.4066016318716
28.965484266097892;2034.994859394824
29.02831611916969;2097.6977935034183
29.091147972241483;2122.0132747732646
29.153979825313282;1996.4331270116152
29.216811678385074;1862.2946833735505
29.279643531456873;1866.6236265994585
29.342475384528665;1956.1548169684443
29.405307237600464;1909.3914245795017
29.468139090672256;1888.8863313193033
29.530970943744055;1986.7136325286
29.593802796815854;2032.0017090921008
29.656634649887646;1960.3250405858314
29.719466502959445;1926.273455143406
29.782298356031237;1974.4474207086882
29.845130209103036;1987.238916551954
29.90796206217483;1886.451876607912
29.970793915246627;1912.760952597446
30.03362576831842;1973.8450586246988
30.09645762139022;2024.3428504674325
30.15928947446201;1914.8886567236007
30.22212132753381;1912.7984336571435
30.28495318060561;1938.5840077514197
30.3477850336774;1928.6071518428566
30.4106168867492;1826.020329478092
30.47344873982099;1797.7261240137384
30.53628059289279;1814.4553766571373
30.599112445964582;1742.2883023969637
30.66194429903638;1711.3617743581874
30.724776152108173;1699.3517104288362
30.787608005179973;1768.324478067145
30.85043985825177;1892.461546525275
30.913271711323564;1898.5404637275922
30.976103564395363;1929.9204386474726
31.038935417467155;1903.9634253603351
31.101767270538954;1841.7223631377171
31.164599123610746;1786.9282701942245
31.227430976682545;1805.6678991909334
31.290262829754337;1852.6778043139961
31.353094682826136;1732.6205282553435
31.415926535897928;1742.5492464638003
31.478758388969727;1749.5245195633709
31.541590242041526;1696.3703028513885
31.604422095113318;1746.7971925677232
31.667253948185117;1846.3741779521913
31.73008580125691;1842.8343730004242
31.792917654328708;1923.7337704162949
31.8557495074005;1979.9471183684423
31.9185813604723;1868.247140810182
31.98141321354409;1756.9818943181222
32.04424506661589;1675.0813206031812
32.107076919687685;1599.280158423204
32.169908772759484;1603.0869889930623
32.232740625831276;1668.9638795393344
32.295572478903075;1644.7066596921882
32.35840433197487;1709.6372039936987
32.421236185046666;1686.8086202029308
32.484068038118465;1611.6957512381487
32.54689989119026;1629.1036659312979
32.60973174426206;1725.9117037257797
32.67256359733385;1705.5400965336148
32.73539545040565;1634.4729664198471
32.79822730347744;1570.0147546904109
32.86105915654924;1581.2498475951345
32.92389100962103;1684.8026108348786
32.98672286269283;1656.4997089002466
33.04955471576463;1547.4349450749835
33.11238656883642;1634.514963554475
33.17521842190822;1655.0475124165637
33.23805027498001;1658.848420324004
33.30088212805181;1719.6168096467284
33.3637139811236;1774.6941154972092
33.4265458341954;1651.1625613827991
33.48937768726719;1628.3140697002366
33.55220954033899;1688.9417014929463
33.61504139341079;1655.737801820718
33.677873246482584;1610.8180465078487
33.74070509955438;1591.2064656946238
33.803536952626175;1578.7889355913378
33.866368805697974;1541.6615387192444
33.929200658769766;1518.9925619513672
33.992032511841565;1515.2020527922716
