frequency;power spectrum
0.0;263080.521
0.06283185307179587;188933.7092205453
0.12566370614359174;91074.58026647892
0.18849555921538758;51077.278902112696
0.25132741228718347;32870.31483515555
0.3141592653589793;22528.861040323827
0.37699111843077515;16533.103933204406
0.43982297150257105;12318.199737643467
0.5026548245743669;9144.559205915199
0.5654866776461628;7205.517711232253
0.6283185307179586;6064.605875253052
0.6911503837897545;5102.743857201493
0.7539822368615503;4451.380326584031
0.8168140899333463;3794.335321909182
0.8796459430051421;2983.992687857564
0.9424777960769378;2586.1585714048692
1.0053096491487339;2389.7557692740875
1.0681415022205298;2087.844591433529
1.1309733552923256;1846.5926168304147
1.1938052083641213;1733.3153635704516
1.2566370614359172;1702.2262464359326
1.3194689145077132;1568.1148424546325
1.382300767579509;1359.117382664382
1.4451326206513047;1194.6400874970575
1.5079644737231006;1133.6185283402008
1.5707963267948966;1059.2737915955092
1.6336281798666925;942.9522562809985
1.6964600329384882;858.6646659726532
1.7592918860102842;819.7602347802873
1.8221237390820801;795.2741776052002
1.8849555921538756;777.6247283277621
1.9477874452256716;718.7129042789219
2.0106192982974678;662.5601628723733
2.0734511513692637;598.2929617905025
2.1362830044410597;544.0455512477262
2.199114857512855;533.5080211132746
2.261946710584651;526.5303491041684
2.324778563656447;497.42655255727215
2.3876104167282426;486.2608587054097
2.4504422698000385;455.2597946100534
2.5132741228718345;428.2155691165296
2.57610597594363;412.2387312776961
2.6389378290154264;389.6973823330971
2.701769682087222;361.53318086444153
2.764601535159018;323.4839240481062
2.827433388230814;325.6405004333635
2.8902652413026093;332.91768110210353
2.9530970943744057;310.81769926404587
3.015928947446201;294.93737989680056
3.078760800517997;295.57939195057776
3.141592653589793;289.7735916658543
3.204424506661589;268.10407117792306
3.267256359733385;248.38682840509276
3.330088212805181;249.74093511076944
3.3929200658769765;257.108899034002
3.4557519189487724;257.6211745454289
3.5185837720205684;246.0986407190779
3.581415625092364;239.2057752403295
3.6442474781641603;235.3664265529768
3.707079331235956;219.3801212144651
3.7699111843077513;202.14177828056407
3.8327430373795477;194.7782813468912
3.895574890451343;183.96599423767822
3.9584067435231396;186.21702631135622
4.0212385965949355;197.70639106668725
4.084070449666731;182.5029888693545
4.1469023027385274;174.81540805014612
4.209734155810323;180.5454842036587
4.272566008882119;173.15501727412112
4.335397861953915;165.25669832998466
4.39822971502571;168.27845459734593
4.461061568097507;161.6166305121866
4.523893421169302;165.26919561121036
4.586725274241098;175.48295471317954
4.649557127312894;168.44236897847722
4.71238898038469;158.33675772333288
4.775220833456485;146.4037501989361
4.838052686528282;136.3324569804146
4.900884539600077;137.12973013422
4.9637163926718735;133.73795537435646
5.026548245743669;125.74387754523838
5.0893800988154645;124.58060002582076
5.15221195188726;131.844808382347
5.215043804959057;135.8055652857833
5.277875658030853;132.60337896839727
5.340707511102648;125.91387551001412
5.403539364174444;120.35139118994698
5.466371217246239;121.84209964714702
5.529203070318036;118.23518248900723
5.592034923389832;115.05180675481277
5.654866776461628;120.28612018508815
5.717698629533423;117.44211252138845
5.780530482605219;108.11294801535199
5.843362335677015;105.79202864310673
5.906194188748811;104.70278780255752
5.969026041820607;104.889
6.031857894892402;108.02933392076214
6.094689747964199;106.37694974224303
6.157521601035994;102.20573183948214
6.220353454107791;98.1026263434723
6.283185307179586;102.58342083241654
6.346017160251382;100.74904923012818
6.408849013323178;95.94375706769816
6.471680866394974;97.00614676891796
6.53451271946677;96.28042383099042
6.5973445725385655;94.11961455012379
6.660176425610362;91.86159597293444
6.7230082786821574;86.82685567832135
6.785840131753953;86.21698823317448
6.8486719848257485;90.0488694180394
6.911503837897545;92.83271849101119
6.974335690969341;94.28732792766672
7.037167544041137;92.66913027395339
7.099999397112932;88.37605037025372
7.162831250184728;87.02122475967072
7.225663103256525;84.89299897889042
7.288494956328321;84.11687758830912
7.351326809400116;81.74969054149783
7.414158662471912;82.08409296778909
7.476990515543707;83.62880703426418
7.539822368615503;84.70082814939533
7.6026542216873;81.1495896830557
7.665486074759095;81.12662498676526
7.728317927830891;84.52741715019124
7.791149780902686;81.92421204347183
7.853981633974482;78.51920469865574
7.916813487046279;75.06421874509633
7.979645340118075;70.50869560575852
8.042477193189871;68.40759043145725
8.105309046261667;67.73654688802856
8.168140899333462;65.03016432406429
8.230972752405258;67.73669518749051
8.293804605477055;65.07694909167002
8.35663645854885;62.44102752520396
8.419468311620646;63.90782634226258
8.482300164692441;63.24510094550132
8.545132017764239;58.406625167080904
8.607963870836034;56.397312878903385
8.67079572390783;57.141389045099956
8.733627576979625;58.60079873296393
8.79645943005142;56.4519861036113
8.859291283123216;50.01622464645816
8.922123136195014;46.24494738817976
8.984954989266809;46.24494738817976
9.047786842338605;50.01622464645816
9.1106186954104;56.4519861036113
9.173450548482196;58.60079873296393
9.236282401553993;57.141389045099956
9.299114254625788;56.397312878903385
9.361946107697584;58.406625167080904
9.42477796076938;63.24510094550132
9.487609813841175;63.90782634226258
9.55044166691297;62.44102752520396
9.613273519984768;65.07694909167002
9.676105373056563;67.73669518749051
9.738937226128359;65.03016432406429
9.801769079200154;67.73654688802856
9.86460093227195;68.40759043145725
9.927432785343747;70.50869560575852
9.990264638415542;75.06421874509633
10.053096491487338;78.51920469865574
10.115928344559133;81.92421204347183
10.178760197630929;84.52741715019124
10.241592050702724;81.12662498676526
10.30442390377452;81.1495896830557
10.367255756846316;84.70082814939533
10.430087609918115;83.62880703426418
10.49291946298991;82.08409296778909
10.555751316061706;81.74969054149783
10.618583169133501;84.11687758830912
10.681415022205297;84.89299897889042
10.744246875277092;87.02122475967072
10.807078728348888;88.37605037025372
10.869910581420683;92.66913027395339
10.932742434492479;94.28732792766672
10.995574287564274;92.83271849101119
11.058406140636071;90.0488694180394
11.121237993707869;86.21698823317448
11.184069846779664;86.82685567832135
11.24690169985146;91.86159597293444
11.309733552923255;94.11961455012379
11.37256540599505;96.28042383099042
11.435397259066846;97.00614676891796
11.498229112138642;95.94375706769816
11.561060965210437;100.74904923012818
11.623892818282235;102.58342083241654
11.68672467135403;98.1026263434723
11.749556524425827;102.20573183948214
11.812388377497623;106.37694974224303
11.875220230569418;108.02933392076214
11.938052083641214;104.889
12.00088393671301;104.70278780255752
12.063715789784805;105.79202864310673
12.1265476428566;108.11294801535199
12.189379495928398;117.44211252138845
12.252211349000193;120.28612018508815
12.315043202071989;115.05180675481277
12.377875055143784;118.23518248900723
12.440706908215581;121.84209964714702
12.503538761287377;120.35139118994698
12.566370614359172;125.91387551001412
12.629202467430968;132.60337896839727
12.692034320502763;135.8055652857833
12.75486617357456;131.844808382347
12.817698026646356;124.58060002582076
12.880529879718152;125.74387754523838
12.943361732789947;133.73795537435646
13.006193585861743;137.12973013422
13.06902543893354;136.3324569804146
13.131857292005336;146.4037501989361
13.194689145077131;158.33675772333288
13.257520998148927;168.44236897847722
13.320352851220724;175.48295471317954
13.38318470429252;165.26919561121036
13.446016557364315;161.6166305121866
13.50884841043611;168.27845459734593
13.571680263507906;165.25669832998466
13.634512116579701;173.15501727412112
13.697343969651497;180.5454842036587
13.760175822723294;174.81540805014612
13.82300767579509;182.5029888693545
13.885839528866887;197.70639106668725
13.948671381938683;186.21702631135622
14.011503235010478;183.96599423767822
14.074335088082274;194.7782813468912
14.137166941154069;202.14177828056407
14.199998794225865;219.3801212144651
14.26283064729766;235.3664265529768
14.325662500369456;239.2057752403295
14.388494353441251;246.0986407190779
14.45132620651305;257.6211745454289
14.514158059584846;257.108899034002
14.576989912656641;249.74093511076944
14.639821765728437;248.38682840509276
14.702653618800232;268.10407117792306
14.765485471872028;289.7735916658543
14.828317324943823;295.57939195057776
14.891149178015619;294.93737989680056
14.953981031087414;310.81769926404587
15.01681288415921;332.91768110210353
15.079644737231005;325.6405004333635
15.142476590302804;323.4839240481062
15.2053084433746;361.53318086444153
15.268140296446395;389.6973823330971
15.33097214951819;412.2387312776961
15.393804002589986;428.2155691165296
15.456635855661782;455.2597946100534
15.519467708733577;486.2608587054097
15.582299561805373;497.42655255727215
15.645131414877168;526.5303491041684
15.707963267948964;533.5080211132746
15.770795121020763;544.0455512477262
15.833626974092558;598.2929617905025
15.896458827164354;662.5601628723733
15.95929068023615;718.7129042789219
16.022122533307947;777.6247283277621
16.084954386379742;795.2741776052002
16.147786239451538;819.7602347802873
16.210618092523333;858.6646659726532
16.27344994559513;942.9522562809985
16.336281798666924;1059.2737915955092
16.39911365173872;1133.6185283402008
16.461945504810515;1194.6400874970575
16.524777357882314;1359.117382664382
16.58760921095411;1568.1148424546325
16.650441064025905;1702.2262464359326
16.7132729170977;1733.3153635704516
16.776104770169496;1846.5926168304147
16.838936623241292;2087.844591433529
16.901768476313087;2389.7557692740875
16.964600329384883;2586.1585714048692
17.02743218245668;2983.992687857564
17.090264035528477;3794.335321909182
17.153095888600273;4451.380326584031
17.21592774167207;5102.743857201493
17.278759594743864;6064.605875253052
17.34159144781566;7205.517711232253
17.404423300887455;9144.559205915199
17.46725515395925;12318.199737643467
17.530087007031046;16533.103933204406
17.59291886010284;22528.861040323827
17.655750713174637;32870.31483515555
17.718582566246432;51077.278902112696
17.78141441931823;91074.58026647892
17.844246272390027;188933.7092205453
