frequency;power spectrum
0.0;263080.521
0.06283185307179587;190025.69398335382
0.12566370614359174;92243.46363444893
0.18849555921538758;51727.46144397486
0.25132741228718347;34532.013887524015
0.3141592653589793;22602.66189754751
0.37699111843077515;15972.512826935223
0.43982297150257105;12363.647868679123
0.5026548245743669;9370.888837354047
0.5654866776461628;7546.06103661902
0.6283185307179586;6126.771990195628
0.6911503837897545;5170.004685984283
0.7539822368615503;4423.793665392686
0.8168140899333463;3658.840139155617
0.8796459430051421;2934.6972665208464
0.9424777960769378;2502.991223847304
1.0053096491487339;2296.7864604403158
1.0681415022205298;2082.814265668769
1.1309733552923256;1910.1828969000403
1.1938052083641213;1772.9995128021162
1.2566370614359172;1622.5214972793149
1.3194689145077132;1534.8530517068311
1.382300767579509;1329.9254332112077
1.4451326206513047;1187.4248773327422
1.5079644737231006;1151.6962017617998
1.5707963267948966;1086.9118662136334
1.6336281798666925;978.1464396895774
1.6964600329384882;887.3504322205192
1.7592918860102842;816.1313690812416
1.8221237390820801;801.127979152993
1.8849555921538756;747.0153009979322
1.9477874452256716;696.755582979254
2.0106192982974678;657.3538812625659
2.0734511513692637;622.6565471051933
2.1362830044410597;600.7832773815236
2.199114857512855;571.2686596817405
2.261946710584651;542.5919384645987
2.324778563656447;486.99994637686774
2.3876104167282426;469.95195218666623
2.4504422698000385;458.4050512739632
2.5132741228718345;435.24341147043293
2.57610597594363;407.0997723820138
2.6389378290154264;371.6699712691824
2.701769682087222;346.23111765986573
2.764601535159018;332.71995679234857
2.827433388230814;325.38395894267467
2.8902652413026093;321.86306094456364
2.9530970943744057;313.2090935057789
3.015928947446201;302.4916158980843
3.078760800517997;288.8986958435941
3.141592653589793;273.6170831621514
3.204424506661589;256.1658277737634
3.267256359733385;245.70416157229366
3.330088212805181;255.03615672223233
3.3929200658769765;256.2737792151279
3.4557519189487724;252.4129968582167
3.5185837720205684;258.3550077677739
3.581415625092364;255.59846191884841
3.6442474781641603;231.56935975244764
3.707079331235956;207.0948962896667
3.7699111843077513;196.087054811224
3.8327430373795477;198.23712984995726
3.895574890451343;191.6519627332451
3.9584067435231396;196.49583456036703
4.0212385965949355;198.63643425662494
4.084070449666731;181.5728939124788
4.1469023027385274;183.77858724699593
4.209734155810323;183.46337654229202
4.272566008882119;167.7093734752949
4.335397861953915;166.39172059951878
4.39822971502571;167.80697216834488
4.461061568097507;167.7551513439851
4.523893421169302;163.09315744399834
4.586725274241098;163.84322370171063
4.649557127312894;157.57995790070504
4.71238898038469;150.82445362088123
4.775220833456485;145.05971899643387
4.838052686528282;145.27933499297134
4.900884539600077;137.44702647948435
4.9637163926718735;131.71656940025645
5.026548245743669;132.14992480143889
5.0893800988154645;137.29105201345857
5.15221195188726;140.55943443784307
5.215043804959057;136.72233088783446
5.277875658030853;134.5578980891695
5.340707511102648;129.01976838519172
5.403539364174444;126.22584563429072
5.466371217246239;121.6150270329149
5.529203070318036;112.30732023032255
5.592034923389832;109.4088202070415
5.654866776461628;118.72810397931403
5.717698629533423;114.95262450667674
5.780530482605219;103.69233019496352
5.843362335677015;105.43085159117665
5.906194188748811;107.41889167112372
5.969026041820607;107.172
6.031857894892402;107.72379406228119
6.094689747964199;112.14765452595721
6.157521601035994;113.84448915382342
6.220353454107791;105.66564281039184
6.283185307179586;103.24655745307946
6.346017160251382;99.45382579302112
6.408849013323178;98.4845531358006
6.471680866394974;97.56425917719164
6.53451271946677;102.60208247163861
6.5973445725385655;103.72985419727567
6.660176425610362;99.31437369779175
6.7230082786821574;94.53408274332759
6.785840131753953;94.38591248528857
6.8486719848257485;96.06477951008459
6.911503837897545;95.98689368448915
6.974335690969341;93.24894328977355
7.037167544041137;93.10515119532238
7.099999397112932;89.09772242610771
7.162831250184728;82.44853808115195
7.225663103256525;82.36318509491542
7.288494956328321;87.19298402124625
7.351326809400116;87.04901585178857
7.414158662471912;81.58480444953345
7.476990515543707;80.37097329566156
7.539822368615503;81.20069339139764
7.6026542216873;79.3005238951032
7.665486074759095;77.98850204536333
7.728317927830891;80.88882311979653
7.791149780902686;81.05368850331793
7.853981633974482;81.57496956798809
7.916813487046279;76.91914722346941
7.979645340118075;69.42981184671949
8.042477193189871;70.32106890474465
8.105309046261667;70.52944980667513
8.168140899333462;68.19677724530088
8.230972752405258;68.19899597565839
8.293804605477055;67.07678003288821
8.35663645854885;65.24681601478122
8.419468311620646;66.08161924007128
8.482300164692441;66.28935621199632
8.545132017764239;64.5482249887857
8.607963870836034;58.54411037562471
8.67079572390783;56.27839140297866
8.733627576979625;55.293930349699835
8.79645943005142;54.81965527816854
8.859291283123216;51.66210521092031
8.922123136195014;48.10913461670974
8.984954989266809;48.10913461670974
9.047786842338605;51.66210521092031
9.1106186954104;54.81965527816854
9.173450548482196;55.293930349699835
9.236282401553993;56.27839140297866
9.299114254625788;58.54411037562471
9.361946107697584;64.5482249887857
9.42477796076938;66.28935621199632
9.487609813841175;66.08161924007128
9.55044166691297;65.24681601478122
9.613273519984768;67.07678003288821
9.676105373056563;68.19899597565839
9.738937226128359;68.19677724530088
9.801769079200154;70.52944980667513
9.86460093227195;70.32106890474465
9.927432785343747;69.42981184671949
9.990264638415542;76.91914722346941
10.053096491487338;81.57496956798809
10.115928344559133;81.05368850331793
10.178760197630929;80.88882311979653
10.241592050702724;77.98850204536333
10.30442390377452;79.3005238951032
10.367255756846316;81.20069339139764
10.430087609918115;80.37097329566156
10.49291946298991;81.58480444953345
10.555751316061706;87.04901585178857
10.618583169133501;87.19298402124625
10.681415022205297;82.36318509491542
10.744246875277092;82.44853808115195
10.807078728348888;89.09772242610771
10.869910581420683;93.10515119532238
10.932742434492479;93.24894328977355
10.995574287564274;95.98689368448915
11.058406140636071;96.06477951008459
11.121237993707869;94.38591248528857
11.184069846779664;94.53408274332759
11.24690169985146;99.31437369779175
11.309733552923255;103.72985419727567
11.37256540599505;102.60208247163861
11.435397259066846;97.56425917719164
11.498229112138642;98.4845531358006
11.561060965210437;99.45382579302112
11.623892818282235;103.24655745307946
11.68672467135403;105.66564281039184
11.749556524425827;113.84448915382342
11.812388377497623;112.14765452595721
11.875220230569418;107.72379406228119
11.938052083641214;107.172
12.00088393671301;107.41889167112372
12.063715789784805;105.43085159117665
12.1265476428566;103.69233019496352
12.189379495928398;114.95262450667674
12.252211349000193;118.72810397931403
12.315043202071989;109.4088202070415
12.377875055143784;112.30732023032255
12.440706908215581;121.6150270329149
12.503538761287377;126.22584563429072
12.566370614359172;129.01976838519172
12.629202467430968;134.5578980891695
12.692034320502763;136.72233088783446
12.75486617357456;140.55943443784307
12.817698026646356;137.29105201345857
12.880529879718152;132.14992480143889
12.943361732789947;131.71656940025645
13.006193585861743;137.44702647948435
13.06902543893354;145.27933499297134
13.131857292005336;145.05971899643387
13.194689145077131;150.82445362088123
13.257520998148927;157.57995790070504
13.320352851220724;163.84322370171063
13.38318470429252;163.09315744399834
13.446016557364315;167.7551513439851
13.50884841043611;167.80697216834488
13.571680263507906;166.39172059951878
13.634512116579701;167.7093734752949
13.697343969651497;183.46337654229202
13.760175822723294;183.77858724699593
13.82300767579509;181.5728939124788
13.885839528866887;198.63643425662494
13.948671381938683;196.49583456036703
14.011503235010478;191.6519627332451
14.074335088082274;198.23712984995726
14.137166941154069;196.087054811224
14.199998794225865;207.0948962896667
14.26283064729766;231.56935975244764
14.325662500369456;255.59846191884841
14.388494353441251;258.3550077677739
14.45132620651305;252.4129968582167
14.514158059584846;256.2737792151279
14.576989912656641;255.03615672223233
14.639821765728437;245.70416157229366
14.702653618800232;256.1658277737634
14.765485471872028;273.6170831621514
14.828317324943823;288.8986958435941
14.891149178015619;302.4916158980843
14.953981031087414;313.2090935057789
15.01681288415921;321.86306094456364
15.079644737231005;325.38395894267467
15.142476590302804;332.71995679234857
15.2053084433746;346.23111765986573
15.268140296446395;371.6699712691824
15.33097214951819;407.0997723820138
15.393804002589986;435.24341147043293
15.456635855661782;458.4050512739632
15.519467708733577;469.95195218666623
15.582299561805373;486.99994637686774
15.645131414877168;542.5919384645987
15.707963267948964;571.2686596817405
15.770795121020763;600.7832773815236
15.833626974092558;622.6565471051933
15.896458827164354;657.3538812625659
15.95929068023615;696.755582979254
16.022122533307947;747.0153009979322
16.084954386379742;801.127979152993
16.147786239451538;816.1313690812416
16.210618092523333;887.3504322205192
16.27344994559513;978.1464396895774
16.336281798666924;1086.9118662136334
16.39911365173872;1151.6962017617998
16.461945504810515;1187.4248773327422
16.524777357882314;1329.9254332112077
16.58760921095411;1534.8530517068311
16.650441064025905;1622.5214972793149
16.7132729170977;1772.9995128021162
16.776104770169496;1910.1828969000403
16.838936623241292;2082.814265668769
16.901768476313087;2296.7864604403158
16.964600329384883;2502.991223847304
17.02743218245668;2934.6972665208464
17.090264035528477;3658.840139155617
17.153095888600273;4423.793665392686
17.21592774167207;5170.004685984283
17.278759594743864;6126.771990195628
17.34159144781566;7546.06103661902
17.404423300887455;9370.888837354047
17.46725515395925;12363.647868679123
17.530087007031046;15972.512826935223
17.59291886010284;22602.66189754751
17.655750713174637;34532.013887524015
17.718582566246432;51727.46144397486
17.78141441931823;92243.46363444893
17.844246272390027;190025.69398335382
