frequency;power spectrum
0.0;263080.521
0.06283185307179587;181951.8381519988
0.12566370614359174;85545.12877353167
0.18849555921538758;51384.48783780007
0.25132741228718347;34610.507578857185
0.3141592653589793;22683.274559704085
0.37699111843077515;16099.396872597887
0.43982297150257105;12144.925448436547
0.5026548245743669;9501.363425873087
0.5654866776461628;7759.019260586513
0.6283185307179586;6063.948047988586
0.6911503837897545;4996.401370108848
0.7539822368615503;4164.7709388598105
0.8168140899333463;3421.411436214402
0.8796459430051421;2845.463756421618
0.9424777960769378;2603.9713476289894
1.0053096491487339;2276.1113367070143
1.0681415022205298;2035.5877098165581
1.1309733552923256;1947.9313807904193
1.1938052083641213;1704.6366850345346
1.2566370614359172;1559.339630337196
1.3194689145077132;1479.0169584149191
1.382300767579509;1358.2759261023573
1.4451326206513047;1235.2078609442228
1.5079644737231006;1153.4646376448122
1.5707963267948966;1032.4263610290118
1.6336281798666925;991.6699066789831
1.6964600329384882;931.4838245477655
1.7592918860102842;865.8773733002224
1.8221237390820801;837.8678515828647
1.8849555921538756;789.4704033115165
1.9477874452256716;714.1973943919758
2.0106192982974678;648.5618927064471
2.0734511513692637;613.9477470334649
2.1362830044410597;573.0173683361129
2.199114857512855;546.7228972252873
2.261946710584651;528.3400803715405
2.324778563656447;503.02446372134744
2.3876104167282426;492.21000536999185
2.4504422698000385;461.5488771273138
2.5132741228718345;454.2274309207553
2.57610597594363;439.52627446315375
2.6389378290154264;386.14384846389396
2.701769682087222;346.3895699411131
2.764601535159018;329.88781804583994
2.827433388230814;322.3489678422806
2.8902652413026093;325.2587264184622
2.9530970943744057;315.07019446195136
3.015928947446201;298.27742131569426
3.078760800517997;291.0749978580309
3.141592653589793;290.1657835824473
3.204424506661589;275.607511269212
3.267256359733385;254.88734015959443
3.330088212805181;248.80640922761023
3.3929200658769765;246.98321718799951
3.4557519189487724;249.13089475571064
3.5185837720205684;245.9101866973822
3.581415625092364;236.13763318105325
3.6442474781641603;228.39112410952086
3.707079331235956;201.51201009597418
3.7699111843077513;182.05467280132913
3.8327430373795477;185.38489138036874
3.895574890451343;190.5169688783756
3.9584067435231396;194.22562232332507
4.0212385965949355;190.8399371598264
4.084070449666731;178.93069761432506
4.1469023027385274;175.29357908222005
4.209734155810323;172.71906424502873
4.272566008882119;173.40373480468745
4.335397861953915;170.5014216037203
4.39822971502571;164.35206905833599
4.461061568097507;160.90143725738972
4.523893421169302;163.89813353819903
4.586725274241098;162.8698241355631
4.649557127312894;159.34926022495557
4.71238898038469;147.7834571599403
4.775220833456485;142.99504295533544
4.838052686528282;145.6089852011646
4.900884539600077;144.64364910922777
4.9637163926718735;129.80257788657016
5.026548245743669;124.38440261029594
5.0893800988154645;129.90603542001602
5.15221195188726;141.31331579925546
5.215043804959057;134.6683782262187
5.277875658030853;131.87564423658333
5.340707511102648;127.93116923739093
5.403539364174444;118.1796428827685
5.466371217246239;118.37295950077754
5.529203070318036;120.38915594386577
5.592034923389832;119.08208313425395
5.654866776461628;112.68865160019176
5.717698629533423;111.03751614870357
5.780530482605219;105.35872828551656
5.843362335677015;110.95832437407822
5.906194188748811;110.62639320416753
5.969026041820607;106.251
6.031857894892402;104.13849029945065
6.094689747964199;107.1908429871874
6.157521601035994;109.1161057162944
6.220353454107791;106.9563396841959
6.283185307179586;105.70679750383256
6.346017160251382;101.05504170959007
6.408849013323178;96.9070355256238
6.471680866394974;96.66869884558804
6.53451271946677;101.23079901380417
6.5973445725385655;98.07764954564745
6.660176425610362;94.32115777545317
6.7230082786821574;95.04398191684744
6.785840131753953;94.12560432236124
6.8486719848257485;94.5388908194705
6.911503837897545;95.06081174475452
6.974335690969341;93.522677976254
7.037167544041137;90.08789435919738
7.099999397112932;89.16691221210809
7.162831250184728;82.90436681894731
7.225663103256525;81.19043551932164
7.288494956328321;80.74749333509631
7.351326809400116;85.45018886431038
7.414158662471912;87.69605158673109
7.476990515543707;86.35888325654213
7.539822368615503;87.91504379361392
7.6026542216873;84.16291054814685
7.665486074759095;79.53949776997388
7.728317927830891;74.08821874823667
7.791149780902686;76.85368050229134
7.853981633974482;79.98255797488986
7.916813487046279;80.05889563658513
7.979645340118075;75.40086546713071
8.042477193189871;72.50614867398664
8.105309046261667;71.88586365777289
8.168140899333462;69.69901870201632
8.230972752405258;67.64188809930455
8.293804605477055;67.54235420903439
8.35663645854885;65.0472666401397
8.419468311620646;61.172763150527935
8.482300164692441;59.4128063164936
8.545132017764239;62.42056118928321
8.607963870836034;62.244066815371426
8.67079572390783;60.90739335043473
8.733627576979625;57.18989625942578
8.79645943005142;52.489434491757265
8.859291283123216;51.74315452626572
8.922123136195014;55.07139598283784
8.984954989266809;55.07139598283784
9.047786842338605;51.74315452626572
9.1106186954104;52.489434491757265
9.173450548482196;57.18989625942578
9.236282401553993;60.90739335043473
9.299114254625788;62.244066815371426
9.361946107697584;62.42056118928321
9.42477796076938;59.4128063164936
9.487609813841175;61.172763150527935
9.55044166691297;65.0472666401397
9.613273519984768;67.54235420903439
9.676105373056563;67.64188809930455
9.738937226128359;69.69901870201632
9.801769079200154;71.88586365777289
9.86460093227195;72.50614867398664
9.927432785343747;75.40086546713071
9.990264638415542;80.05889563658513
10.053096491487338;79.98255797488986
10.115928344559133;76.85368050229134
10.178760197630929;74.08821874823667
10.241592050702724;79.53949776997388
10.30442390377452;84.16291054814685
10.367255756846316;87.91504379361392
10.430087609918115;86.35888325654213
10.49291946298991;87.69605158673109
10.555751316061706;85.45018886431038
10.618583169133501;80.74749333509631
10.681415022205297;81.19043551932164
10.744246875277092;82.90436681894731
10.807078728348888;89.16691221210809
10.869910581420683;90.08789435919738
10.932742434492479;93.522677976254
10.995574287564274;95.06081174475452
11.058406140636071;94.5388908194705
11.121237993707869;94.12560432236124
11.184069846779664;95.04398191684744
11.24690169985146;94.32115777545317
11.309733552923255;98.07764954564745
11.37256540599505;101.23079901380417
11.435397259066846;96.66869884558804
11.498229112138642;96.9070355256238
11.561060965210437;101.05504170959007
11.623892818282235;105.70679750383256
11.68672467135403;106.9563396841959
11.749556524425827;109.1161057162944
11.812388377497623;107.1908429871874
11.875220230569418;104.13849029945065
11.938052083641214;106.251
12.00088393671301;110.62639320416753
12.063715789784805;110.95832437407822
12.1265476428566;105.35872828551656
12.189379495928398;111.03751614870357
12.252211349000193;112.68865160019176
12.315043202071989;119.08208313425395
12.377875055143784;120.38915594386577
12.440706908215581;118.37295950077754
12.503538761287377;118.1796428827685
12.566370614359172;127.93116923739093
12.629202467430968;131.87564423658333
12.692034320502763;134.6683782262187
12.75486617357456;141.31331579925546
12.817698026646356;129.90603542001602
12.880529879718152;124.38440261029594
12.943361732789947;129.80257788657016
13.006193585861743;144.64364910922777
13.06902543893354;145.6089852011646
13.131857292005336;142.99504295533544
13.194689145077131;147.7834571599403
13.257520998148927;159.34926022495557
13.320352851220724;162.8698241355631
13.38318470429252;163.89813353819903
13.446016557364315;160.90143725738972
13.50884841043611;164.35206905833599
13.571680263507906;170.5014216037203
13.634512116579701;173.40373480468745
13.697343969651497;172.71906424502873
13.760175822723294;175.29357908222005
13.82300767579509;178.93069761432506
13.885839528866887;190.8399371598264
13.948671381938683;194.22562232332507
14.011503235010478;190.5169688783756
14.074335088082274;185.38489138036874
14.137166941154069;182.05467280132913
14.199998794225865;201.51201009597418
14.26283064729766;228.39112410952086
14.325662500369456;236.13763318105325
14.388494353441251;245.9101866973822
14.45132620651305;249.13089475571064
14.514158059584846;246.98321718799951
14.576989912656641;248.80640922761023
14.639821765728437;254.88734015959443
14.702653618800232;275.607511269212
14.765485471872028;290.1657835824473
14.828317324943823;291.0749978580309
14.891149178015619;298.27742131569426
14.953981031087414;315.07019446195136
15.01681288415921;325.2587264184622
15.079644737231005;322.3489678422806
15.142476590302804;329.88781804583994
15.2053084433746;346.3895699411131
15.268140296446395;386.14384846389396
15.33097214951819;439.52627446315375
15.393804002589986;454.2274309207553
15.456635855661782;461.5488771273138
15.519467708733577;492.21000536999185
15.582299561805373;503.02446372134744
15.645131414877168;528.3400803715405
15.707963267948964;546.7228972252873
15.770795121020763;573.0173683361129
15.833626974092558;613.9477470334649
15.896458827164354;648.5618927064471
15.95929068023615;714.1973943919758
16.022122533307947;789.4704033115165
16.084954386379742;837.8678515828647
16.147786239451538;865.8773733002224
16.210618092523333;931.4838245477655
16.27344994559513;991.6699066789831
16.336281798666924;1032.4263610290118
16.39911365173872;1153.4646376448122
16.461945504810515;1235.2078609442228
16.524777357882314;1358.2759261023573
16.58760921095411;1479.0169584149191
16.650441064025905;1559.339630337196
16.7132729170977;1704.6366850345346
16.776104770169496;1947.9313807904193
16.838936623241292;2035.5877098165581
16.901768476313087;2276.1113367070143
16.964600329384883;2603.9713476289894
17.02743218245668;2845.463756421618
17.090264035528477;3421.411436214402
17.153095888600273;4164.7709388598105
17.21592774167207;4996.401370108848
17.278759594743864;6063.948047988586
17.34159144781566;7759.019260586513
17.404423300887455;9501.363425873087
17.46725515395925;12144.925448436547
17.530087007031046;16099.396872597887
17.59291886010284;22683.274559704085
17.655750713174637;34610.507578857185
17.718582566246432;51384.48783780007
17.78141441931823;85545.12877353167
17.844246272390027;181951.8381519988
