frequency;power spectrum
0.0;118764909.345
0.06283185307179587;87859849.19037648
0.12566370614359174;46787603.052452594
0.18849555921538758;24364302.71239402
0.25132741228718347;12693322.308460336
0.3141592653589793;6964150.453997997
0.37699111843077515;4315399.799578001
0.43982297150257105;2851179.3707217975
0.5026548245743669;2104568.711846643
0.5654866776461628;1509810.9604508237
0.6283185307179586;1140349.5180497656
0.6911503837897545;907649.979808702
0.7539822368615503;754704.3213512148
0.8168140899333463;630972.7909501506
0.8796459430051421;551484.6501227965
0.9424777960769378;489514.8601870767
1.0053096491487339;432562.2299373062
1.0681415022205298;385890.2011601362
1.1309733552923256;358763.8732779689
1.1938052083641213;313604.1222710466
1.2566370614359172;287779.0346780057
1.3194689145077132;276017.72468625376
1.382300767579509;252416.49233339744
1.4451326206513047;229404.8573823051
1.5079644737231006;211174.8686292131
1.5707963267948966;195342.86384112522
1.6336281798666925;178607.79383726406
1.6964600329384882;165400.28818075755
1.7592918860102842;153239.07541870515
1.8221237390820801;157559.58206592372
1.8849555921538756;151758.88774588774
1.9477874452256716;140388.20584413313
2.0106192982974678;126037.84426520274
2.0734511513692637;120546.49865277439
2.1362830044410597;116543.0455358968
2.199114857512855;114672.87316426206
2.261946710584651;116337.4378401564
2.324778563656447;110225.33581008892
2.3876104167282426;101720.74153710953
2.4504422698000385;93479.57512926293
2.5132741228718345;89225.82106734099
2.57610597594363;88410.07375462061
2.6389378290154264;86402.8547080692
2.701769682087222;83298.88040434134
2.764601535159018;80019.06294475972
2.827433388230814;77068.16530625283
2.8902652413026093;74447.23182222988
2.9530970943744057;70217.79121326793
3.015928947446201;65732.68608901152
3.078760800517997;64398.41000335204
3.141592653589793;62965.15914635937
3.204424506661589;60171.36236190788
3.267256359733385;56787.94575194452
3.330088212805181;54822.522898802184
3.3929200658769765;55538.28827894236
3.4557519189487724;56394.61751362369
3.5185837720205684;55600.03541508079
3.581415625092364;51416.779023319774
3.6442474781641603;48772.21118767863
3.707079331235956;47498.169666108
3.7699111843077513;46060.57240687117
3.8327430373795477;44815.79984047769
3.895574890451343;42486.13773176057
3.9584067435231396;42458.47957544851
4.0212385965949355;42082.43787921752
4.084070449666731;41906.44144690917
4.1469023027385274;41714.40914875803
4.209734155810323;39825.206243812994
4.272566008882119;40783.12412774877
4.335397861953915;40883.27230789891
4.39822971502571;38735.691719297705
4.461061568097507;37437.146033910525
4.523893421169302;34789.46006350883
4.586725274241098;32664.683718580796
4.649557127312894;32025.203203176687
4.71238898038469;30386.014656494903
4.775220833456485;32019.305271970174
4.838052686528282;30980.693821838362
4.900884539600077;30361.606671134054
4.9637163926718735;31880.34152948036
5.026548245743669;30991.379451771132
5.0893800988154645;30765.586880445255
5.15221195188726;30836.431097868528
5.215043804959057;28626.27322531966
5.277875658030853;26582.42949079779
5.340707511102648;26459.934769524276
5.403539364174444;25952.43366699547
5.466371217246239;25144.906005318793
5.529203070318036;24390.48792792858
5.592034923389832;23364.78475308574
5.654866776461628;24396.13432204099
5.717698629533423;25789.355486387907
5.780530482605219;26316.979532019763
5.843362335677015;25737.362083813066
5.906194188748811;24256.494470551344
5.969026041820607;23028.66924499857
6.031857894892402;21117.954632673034
6.094689747964199;20316.650570624417
6.157521601035994;20196.943141861473
6.220353454107791;20147.009637718405
6.283185307179586;20715.598514663638
6.346017160251382;20000.017598299
6.408849013323178;18613.13461802278
6.471680866394974;18285.435853610714
6.53451271946677;17153.367432316678
6.5973445725385655;16893.947775635
6.660176425610362;17669.995785204643
6.7230082786821574;18258.27650042843
6.785840131753953;17310.744330775266
6.8486719848257485;16778.247390273402
6.911503837897545;16675.164921624008
6.974335690969341;16599.548883972682
7.037167544041137;17021.230260939792
7.099999397112932;16197.587443603492
7.162831250184728;16163.850418421413
7.225663103256525;15885.077751016863
7.288494956328321;15285.708826130027
7.351326809400116;15976.22306166824
7.414158662471912;16462.483131188103
7.476990515543707;15379.317014335236
7.539822368615503;14851.117228757672
7.6026542216873;15280.150853181305
7.665486074759095;14432.929778964774
7.728317927830891;14450.157310761486
7.791149780902686;14249.585960206075
7.853981633974482;13893.328523703145
7.916813487046279;14012.30769848386
7.979645340118075;13813.699948643565
8.042477193189871;13710.100425668754
8.105309046261667;13340.410686828587
8.168140899333462;13267.740926181015
8.230972752405258;13245.680352059868
8.293804605477055;12999.311833418062
8.35663645854885;12670.154646066261
8.419468311620646;12674.746506971354
8.482300164692441;12447.296557715576
8.545132017764239;11591.14554521802
8.607963870836034;11402.948129791555
8.67079572390783;12053.407787940801
8.733627576979625;12084.141881833975
8.79645943005142;11796.297091051734
8.859291283123216;11571.911867800018
8.922123136195014;11494.053520800178
8.984954989266809;11552.721037117815
9.047786842338605;11224.737152437438
9.1106186954104;10554.33195682378
9.173450548482196;10507.390925008505
9.236282401553993;10409.870609149943
9.299114254625788;10437.069327815338
9.361946107697584;9796.724426843344
9.42477796076938;10142.69155949797
9.487609813841175;10522.327109029384
9.55044166691297;9858.868755985879
9.613273519984768;9729.645250773232
9.676105373056563;10242.057083264555
9.738937226128359;10251.771058269396
9.801769079200154;10275.432926268042
9.86460093227195;10175.295565878747
9.927432785343747;9552.481374724319
9.990264638415542;9232.132646969674
10.053096491487338;9215.215914738834
10.115928344559133;8596.842243984105
10.178760197630929;8732.163725984297
10.241592050702724;8653.517438491514
10.30442390377452;8717.67881876793
10.367255756846316;8912.763711959124
10.430087609918115;9106.977950225551
10.49291946298991;8835.84011339372
10.555751316061706;8428.249928626896
10.618583169133501;8734.963254916262
10.681415022205297;8345.03750173524
10.744246875277092;8437.831423257796
10.807078728348888;8371.167494557287
10.869910581420683;8488.009605475083
10.932742434492479;8457.307828662984
10.995574287564274;7849.194329669399
11.058406140636071;7323.833477703223
11.121237993707869;7181.184684214139
11.184069846779664;7334.500999431499
11.24690169985146;7434.511717002419
11.309733552923255;7591.398155625906
11.37256540599505;8132.198563458038
11.435397259066846;8105.347290636524
11.498229112138642;7845.819461549179
11.561060965210437;7565.652980724226
11.623892818282235;7071.817659548729
11.68672467135403;7003.594654159466
11.749556524425827;7305.6960594391385
11.812388377497623;7012.571451048075
11.875220230569418;6679.2211290652185
11.938052083641214;6700.272087134985
12.00088393671301;6611.237376542195
12.063715789784805;6230.123823000355
12.1265476428566;6381.258952288604
12.189379495928398;6972.326174850125
12.252211349000193;7178.406411531847
12.315043202071989;7262.079622697094
12.377875055143784;6948.553368612144
12.440706908215581;6794.052295966045
12.503538761287377;6579.941133145036
12.566370614359172;6766.00180922655
12.629202467430968;6960.3006233136075
12.692034320502763;7144.662085631924
12.75486617357456;6862.7731344373
12.817698026646356;6507.559705500343
12.880529879718152;6249.2539565100615
12.943361732789947;6482.194819721909
13.006193585861743;6672.28551854971
13.06902543893354;6643.341533497187
13.131857292005336;6267.282621320019
13.194689145077131;6172.035794180674
13.257520998148927;6114.481038817389
13.320352851220724;5956.296393206232
13.38318470429252;5987.801706476965
13.446016557364315;6025.3542775950455
13.50884841043611;6174.395292717722
13.571680263507906;5992.2202799972565
13.634512116579701;5627.183725268471
13.697343969651497;5706.984358303647
13.760175822723294;5753.785679093085
13.82300767579509;5465.878880382854
13.885839528866887;5252.70472640247
13.948671381938683;5515.847625725265
14.011503235010478;5611.0483534851755
14.074335088082274;5292.113213660304
14.137166941154069;5365.342226467287
14.199998794225865;5522.899806743858
14.26283064729766;5558.19367726066
14.325662500369456;5617.006864686765
14.388494353441251;5889.64945417935
14.45132620651305;5930.342092011089
14.514158059584846;5841.893722990698
14.576989912656641;5744.016069717576
14.639821765728437;5709.620332101034
14.702653618800232;5414.056557643355
14.765485471872028;5356.009923097724
14.828317324943823;5258.634365289531
14.891149178015619;5106.095836199692
14.953981031087414;5012.060229810857
15.01681288415921;5013.287034103198
15.079644737231005;5008.472385894416
15.142476590302804;5333.757747632417
15.2053084433746;5538.849696028977
15.268140296446395;5323.684284202048
15.33097214951819;5051.008807817033
15.393804002589986;5124.121274936076
15.456635855661782;5256.489114603607
15.519467708733577;5332.979896202397
15.582299561805373;5135.1459856011625
15.645131414877168;4995.76813879751
15.707963267948964;4739.4693637872815
15.770795121020763;4492.295982623602
15.833626974092558;4652.015403204521
15.896458827164354;4589.5280737018265
15.95929068023615;4902.666472729284
16.022122533307947;4878.004914218993
16.084954386379742;4779.148572678903
16.147786239451538;4479.698790323033
16.210618092523333;4459.745199337472
16.27344994559513;4416.225984715702
16.336281798666924;4405.075800876504
16.39911365173872;4355.312314739629
16.461945504810515;4559.405903257586
16.524777357882314;4584.497038520146
16.58760921095411;4688.119080686204
16.650441064025905;4531.317255291047
16.7132729170977;4450.199505621416
16.776104770169496;4361.870689419966
16.838936623241292;4345.5685623380905
16.901768476313087;4349.45444185898
16.964600329384883;4377.601759414816
17.02743218245668;4330.374049579303
17.090264035528477;4372.04023806546
17.153095888600273;4353.155815486402
17.21592774167207;4257.346775506618
17.278759594743864;4204.562102940484
17.34159144781566;4259.776978046947
17.404423300887455;4333.012275317418
17.46725515395925;4184.974375579899
17.530087007031046;4131.784903320204
17.59291886010284;4112.623498657086
17.655750713174637;4127.953798852356
17.718582566246432;3968.333981350726
17.78141441931823;3823.1637031976343
17.844246272390027;3778.5314002012638
17.907078125461823;3650.8943881537366
17.969909978533618;3560.938100364614
18.032741831605414;3660.0153376898274
18.09557368467721;3837.973099911205
18.158405537749005;3844.163746939215
18.2212373908208;3798.5399249393654
18.284069243892596;3628.7100416945673
18.34690109696439;3676.8888597960786
18.409732950036187;3718.3981943391714
18.472564803107986;3752.553461126807
18.53539665617978;3804.971639777161
18.598228509251577;3731.2473030788706
18.661060362323372;3757.8182593152433
18.723892215395168;3928.825637371581
18.786724068466963;3948.527525821596
18.84955592153876;3791.4882546057056
18.912387774610554;3523.9940751962104
18.97521962768235;3267.1843947322136
19.038051480754145;3360.672101042019
19.10088333382594;3419.7647995017805
19.16371518689774;3454.870499985298
19.226547039969535;3709.3753840419868
19.28937889304133;3772.178921247313
19.352210746113126;3708.750333654795
19.415042599184922;3813.521651875003
19.477874452256717;3727.03848275592
19.540706305328513;3586.470394783903
19.60353815840031;3451.073245957983
19.666370011472104;3310.4815977223784
19.7292018645439;3237.3933683150626
19.7920337176157;3355.94163608999
19.854865570687494;3464.6117138828617
19.91769742375929;3436.493679682462
19.980529276831085;3293.909768552107
20.04336112990288;3217.191899987097
20.106192982974676;3192.9523056218227
20.16902483604647;3227.9093222149795
20.231856689118267;3301.9217405279283
20.294688542190062;3271.4687851523167
20.357520395261858;3076.5990647329995
20.420352248333653;3144.2567146865213
20.48318410140545;3304.7085128435174
20.546015954477248;3309.3309873475746
20.60884780754904;3309.634849802886
20.67167966062084;3441.169755813554
20.73451151369263;3405.421327456404
20.79734336676443;3377.186927528305
20.86017521983623;3378.1549077690042
20.92300707290802;3301.119416022841
20.98583892597982;3062.3548230300253
21.048670779051612;2960.803796032566
21.11150263212341;3111.902495312599
21.174334485195203;3110.8952357013154
21.237166338267002;3257.370614992048
21.299998191338794;2989.21961134018
21.362830044410593;2908.3275550536605
21.425661897482385;2922.8521794724466
21.488493750554184;2908.4854280577297
21.551325603625983;2908.603440624463
21.614157456697775;3052.2074080967955
21.676989309769574;3061.956475547128
21.739821162841366;3040.3242548794246
21.802653015913165;3129.0214233276793
21.865484868984957;3082.8326690926606
21.928316722056756;3125.2851758169977
21.99114857512855;3111.8935907973987
22.053980428200347;3008.2146223661052
22.116812281272143;2896.6432411817914
22.17964413434394;2904.1965357731015
22.242475987415737;2858.7741584508667
22.30530784048753;2854.933141712653
22.36813969355933;2881.0117139426707
22.43097154663112;2944.1772060326393
22.49380339970292;3167.478484932231
22.55663525277471;3138.66063636634
22.61946710584651;3120.468279260912
22.682298958918306;3116.155496782941
22.7451308119901;2945.191845014353
22.8079626650619;2826.9763596122884
22.870794518133692;2818.5761574560142
22.93362637120549;2756.8201646403677
22.996458224277283;2687.0814742032367
23.059290077349083;2687.900039534931
23.122121930420874;2784.3813672422184
23.184953783492674;2750.221898080354
23.24778563656447;2739.599770592243
23.310617489636265;2823.4181198741694
23.37344934270806;2956.760271861299
23.436281195779856;3102.1068191467093
23.499113048851655;2888.861475601051
23.561944901923447;2694.654911285934
23.624776754995246;2579.746730388304
23.687608608067038;2594.662670184177
23.750440461138837;2584.528140387844
23.813272314210632;2663.9568552460255
23.876104167282428;2748.467179478717
23.938936020354223;2761.374732674273
24.00176787342602;2781.4156134245163
24.064599726497814;2733.5824428337264
24.12743157956961;2628.4299342534728
24.19026343264141;2697.8645142903392
24.2530952857132;2729.955013560585
24.315927138785;2527.1807036910577
24.378758991856795;2449.4203427810153
24.44159084492859;2355.039391486597
24.504422698000386;2454.1489651198417
24.567254551072182;2589.1101794699093
24.630086404143977;2623.237767852281
24.692918257215773;2526.8064632624637
24.75575011028757;2454.3140402837707
24.818581963359364;2544.4259475820663
24.881413816431163;2641.6021252429528
24.94424566950296;2811.5363296186156
25.007077522574754;2806.444367093592
25.06990937564655;2685.231220010548
25.132741228718345;2593.1624700189245
25.19557308179014;2643.544756644267
25.258404934861936;2642.055453513547
25.32123678793373;2685.30925110766
25.384068641005527;2566.8957382539847
25.446900494077322;2462.7421251248347
25.50973234714912;2437.86870648554
25.572564200220917;2367.518229322629
25.635396053292713;2418.793161907952
25.698227906364508;2440.456646317492
25.761059759436304;2419.968595539036
25.8238916125081;2321.889229704393
25.886723465579895;2362.539187016676
25.94955531865169;2298.446864304276
26.012387171723486;2280.39983465593
26.075219024795285;2306.2606633905775
26.13805087786708;2338.367332094217
26.200882730938876;2325.5935776084616
26.26371458401067;2322.2439465311027
26.326546437082467;2399.7829196146067
26.389378290154262;2542.513189602606
26.452210143226058;2440.2666623996715
26.515041996297853;2282.0856015949053
26.57787384936965;2315.795637614067
26.640705702441448;2518.398057113635
26.70353755551324;2708.6418825869487
26.76636940858504;2674.6489660254665
26.829201261656834;2486.1193320525567
26.89203311472863;2388.720636574413
26.954864967800425;2370.200867187744
27.01769682087222;2365.4057617125636
27.080528673944016;2381.4528666495994
27.143360527015812;2295.789964269096
27.20619238008761;2192.8657362119766
27.269024233159403;2265.746434446639
27.331856086231202;2232.4905204601805
27.394687939302994;2159.669058788145
27.457519792374793;2181.8867792154842
27.52035164544659;2177.19401727945
27.583183498518384;2153.843769855585
27.64601535159018;2233.0686171373004
27.708847204661975;2207.6976381360837
27.771679057733774;2180.9583382488468
27.834510910805566;2202.6144149256115
27.897342763877365;2099.810735932053
27.960174616949157;2089.2593485964157
28.023006470020956;2199.5104042203498
28.085838323092748;2035.2967449639284
28.148670176164547;1992.8779727841884
28.211502029236343;2068.483632791396
28.274333882308138;2094.566487456662
28.337165735379937;2114.1062732158657
28.39999758845173;2173.866687640068
28.462829441523528;2106.7075274013964
28.52566129459532;2136.0096382859024
28.58849314766712;2169.3111444990886
28.65132500073891;2187.1727261253254
28.71415685381071;2046.3262752847456
28.776988706882502;2040.7611625077539
28.8398205599543;2077.4524440805826
28.9026524130261;2025.3854051332416
28.965484266097892;2028.4843774209673
29.02831611916969;2139.166548361435
29.091147972241483;2179.6450502130765
29.153979825313282;2016.3860634373707
29.216811678385074;1914.3621221550172
29.279643531456873;1971.3132490740181
29.342475384528665;1989.3209763205152
29.405307237600464;1975.7930954531369
29.468139090672256;1982.818727680522
29.530970943744055;1991.1079618548113
29.593802796815854;1970.7277290769568
29.656634649887646;1875.4339450844084
29.719466502959445;1868.8422877384733
29.782298356031237;1882.3467661900943
29.845130209103036;1847.7494456794163
29.90796206217483;1816.429637013732
29.970793915246627;1916.1817706832862
30.03362576831842;1998.2996238049873
30.09645762139022;2017.257390602479
30.15928947446201;1926.8948824213248
30.22212132753381;1953.0986155111495
30.28495318060561;1959.9044656183385
30.3477850336774;1919.039935044057
30.4106168867492;1883.925595860071
30.47344873982099;1832.8190584683232
30.53628059289279;1873.576579773786
30.599112445964582;1860.0716843770379
30.66194429903638;1804.4852096207458
30.724776152108173;1747.9053623641191
30.787608005179973;1741.9780671198357
30.85043985825177;1831.0765418222588
30.913271711323564;1862.2604478548903
30.976103564395363;1903.5431409051293
31.038935417467155;1888.8581889092502
31.101767270538954;1883.5036337070442
31.164599123610746;1844.5586758614131
31.227430976682545;1830.1495170373348
31.290262829754337;1847.9458767701915
31.353094682826136;1776.109987873606
31.415926535897928;1768.626128619935
31.478758388969727;1711.7342853506386
31.541590242041526;1675.5776169407193
31.604422095113318;1652.7640109181225
31.667253948185117;1640.2769770723532
31.73008580125691;1680.2929476390527
31.792917654328708;1769.4138597992908
31.8557495074005;1803.3738288945954
31.9185813604723;1771.9321129868677
31.98141321354409;1666.3664931187666
32.04424506661589;1553.880115084437
32.107076919687685;1502.3118444832185
32.169908772759484;1530.3020675917815
32.232740625831276;1621.297574533271
32.295572478903075;1622.1700424553628
32.35840433197487;1741.6151985794456
32.421236185046666;1780.410324955447
32.484068038118465;1745.9785619721667
32.54689989119026;1797.9874413826813
32.60973174426206;1901.0040082588293
32.67256359733385;1799.885015835776
32.73539545040565;1701.181186417707
32.79822730347744;1692.79040999344
32.86105915654924;1695.5981190874966
32.92389100962103;1736.7420631992536
32.98672286269283;1667.6621830200704
33.04955471576463;1562.7390122720765
33.11238656883642;1625.3019706818566
33.17521842190822;1669.3362928494528
33.23805027498001;1696.7304139055975
33.30088212805181;1700.315293450583
33.3637139811236;1684.5802772944432
33.4265458341954;1592.9920811531465
33.48937768726719;1596.1868435813926
33.55220954033899;1662.6435041080967
33.61504139341079;1668.0961809115338
33.677873246482584;1638.0983391843392
33.74070509955438;1638.6176458998161
33.803536952626175;1672.563620392519
33.866368805697974;1608.18386860305
33.929200658769766;1580.8799721144505
